1,1,1.06449,1.06449
2,1,1.09824,1.09824
3,1,1.13299,1.13299
4,1,1.16874,1.16874
5,1,1.20546,1.20546
6,1,1.24315,1.24316
7,1,1.28179,1.28179
8,1,1.32135,1.32135
9,1,1.3618,1.3618
10,1,1.4031,1.40311
11,1,1.44523,1.44523
12,1,1.48813,1.48813
13,1,1.53176,1.53176
14,1,1.57605,1.57606
15,1,1.62096,1.62096
16,1,1.66641,1.66642
17,1,1.71234,1.71234
18,1,1.75866,1.75866
19,1,1.80529,1.80529
20,1,1.85215,1.85215
21,1,1.89913,1.89914
22,1,1.94616,1.94616
23,1,1.9931,1.99311
24,1,2.03987,2.03988
25,1,2.08635,2.08635
26,1,2.13242,2.13242
27,1,2.17796,2.17796
28,1,2.22286,2.22286
29,1,2.26698,2.26698
30,1,2.31019,2.31019
31,1,2.35238,2.35238
1,2,1.09828,1.09828
2,2,1.1331,1.1331
3,2,1.16896,1.16896
4,2,1.20583,1.20584
5,2,1.24373,1.24373
6,2,1.28261,1.28262
7,2,1.32248,1.32248
8,2,1.36329,1.36329
9,2,1.40502,1.40503
10,2,1.44764,1.44765
11,2,1.4911,1.49111
12,2,1.53536,1.53537
13,2,1.58038,1.58038
14,2,1.62608,1.62609
15,2,1.67241,1.67242
16,2,1.71931,1.71931
17,2,1.76669,1.7667
18,2,1.81448,1.81449
19,2,1.86259,1.8626
20,2,1.91094,1.91094
21,2,1.95942,1.95942
22,2,2.00793,2.00794
23,2,2.05637,2.05637
24,2,2.10462,2.10463
25,2,2.15258,2.15258
26,2,2.20011,2.20011
27,2,2.2471,2.2471
28,2,2.29342,2.29342
29,2,2.33894,2.33894
30,2,2.38353,2.38353
31,2,2.42705,2.42705
1,3,1.13314,1.13314
2,3,1.16907,1.16907
3,3,1.20606,1.20606
4,3,1.24411,1.24412
5,3,1.2832,1.28321
6,3,1.32333,1.32333
7,3,1.36445,1.36446
8,3,1.40656,1.40657
9,3,1.44962,1.44963
10,3,1.49359,1.4936
11,3,1.53843,1.53844
12,3,1.5841,1.58411
13,3,1.63054,1.63055
14,3,1.67769,1.6777
15,3,1.7255,1.72551
16,3,1.77388,1.77389
17,3,1.82277,1.82278
18,3,1.87207,1.87208
19,3,1.92172,1.92172
20,3,1.97159,1.9716
21,3,2.02161,2.02162
22,3,2.07167,2.07167
23,3,2.12164,2.12165
24,3,2.17143,2.17144
25,3,2.22091,2.22091
26,3,2.26995,2.26995
27,3,2.31843,2.31843
28,3,2.36622,2.36622
29,3,2.41318,2.41318
30,3,2.45919,2.45919
31,3,2.5041,2.5041
1,4,1.16911,1.16911
2,4,1.20618,1.20618
3,4,1.24434,1.24435
4,4,1.2836,1.28361
5,4,1.32394,1.32394
6,4,1.36533,1.36534
7,4,1.40776,1.40777
8,4,1.45121,1.45122
9,4,1.49563,1.49564
10,4,1.541,1.54101
11,4,1.58726,1.58728
12,4,1.63438,1.63439
13,4,1.6823,1.68231
14,4,1.73095,1.73096
15,4,1.78027,1.78028
16,4,1.83019,1.8302
17,4,1.88063,1.88064
18,4,1.9315,1.93151
19,4,1.98271,1.98273
20,4,2.03418,2.03419
21,4,2.08578,2.08579
22,4,2.13743,2.13744
23,4,2.18899,2.189
24,4,2.24036,2.24036
25,4,2.2914,2.29141
26,4,2.342,2.34201
27,4,2.39202,2.39203
28,4,2.44133,2.44133
29,4,2.48978,2.48979
30,4,2.53725,2.53725
31,4,2.58359,2.58359
1,5,1.20622,1.20622
2,5,1.24447,1.24447
3,5,1.28384,1.28385
4,5,1.32435,1.32435
5,5,1.36596,1.36597
6,5,1.40867,1.40868
7,5,1.45245,1.45246
8,5,1.49727,1.49729
9,5,1.54311,1.54312
10,5,1.58991,1.58993
11,5,1.63765,1.63766
12,5,1.68626,1.68628
13,5,1.7357,1.73571
14,5,1.78589,1.78591
15,5,1.83678,1.83679
16,5,1.88828,1.8883
17,5,1.94032,1.94034
18,5,1.99281,1.99282
19,5,2.04565,2.04567
20,5,2.09875,2.09876
21,5,2.15199,2.15201
22,5,2.20527,2.20529
23,5,2.25847,2.25849
24,5,2.31147,2.31148
25,5,2.36414,2.36415
26,5,2.41634,2.41635
27,5,2.46795,2.46796
28,5,2.51882,2.51883
29,5,2.56882,2.56882
30,5,2.61779,2.61779
31,5,2.6656,2.6656
1,6,1.24451,1.24451
2,6,1.28397,1.28397
3,6,1.3246,1.3246
4,6,1.36638,1.36639
5,6,1.40932,1.40933
6,6,1.45338,1.4534
7,6,1.49855,1.49857
8,6,1.5448,1.54481
9,6,1.59209,1.5921
10,6,1.64038,1.6404
11,6,1.68963,1.68965
12,6,1.73979,1.7398
13,6,1.79079,1.79081
14,6,1.84258,1.8426
15,6,1.89508,1.8951
16,6,1.94822,1.94824
17,6,2.00191,2.00193
18,6,2.05607,2.05608
19,6,2.11058,2.1106
20,6,2.16537,2.16538
21,6,2.2203,2.22032
22,6,2.27528,2.27529
23,6,2.33017,2.33018
24,6,2.38485,2.38486
25,6,2.43918,2.43919
26,6,2.49305,2.49305
27,6,2.54629,2.5463
28,6,2.59878,2.59878
29,6,2.65036,2.65036
30,6,2.70089,2.70089
31,6,2.75021,2.75021
1,7,1.28402,1.28402
2,7,1.32473,1.32473
3,7,1.36664,1.36665
4,7,1.40976,1.40977
5,7,1.45406,1.45407
6,7,1.49952,1.49953
7,7,1.54612,1.54614
8,7,1.59384,1.59385
9,7,1.64263,1.64264
10,7,1.69245,1.69247
11,7,1.74326,1.74328
12,7,1.79501,1.79503
13,7,1.84763,1.84766
14,7,1.90107,1.90109
15,7,1.95524,1.95526
16,7,2.01006,2.01008
17,7,2.06546,2.06548
18,7,2.12133,2.12135
19,7,2.17758,2.1776
20,7,2.2341,2.23412
21,7,2.29078,2.2908
22,7,2.3475,2.34751
23,7,2.40413,2.40415
24,7,2.46055,2.46056
25,7,2.51661,2.51662
26,7,2.57218,2.57219
27,7,2.62712,2.62713
28,7,2.68127,2.68128
29,7,2.73449,2.73449
30,7,2.78662,2.78662
31,7,2.83751,2.83751
1,8,1.32477,1.32478
2,8,1.36678,1.36678
3,8,1.41002,1.41003
4,8,1.45451,1.45452
5,8,1.50021,1.50022
6,8,1.54712,1.54713
7,8,1.5952,1.59522
8,8,1.64443,1.64445
9,8,1.69477,1.69479
10,8,1.74617,1.74619
11,8,1.7986,1.79862
12,8,1.85199,1.85201
13,8,1.90628,1.90631
14,8,1.96141,1.96143
15,8,2.0173,2.01732
16,8,2.07387,2.07389
17,8,2.13102,2.13104
18,8,2.18867,2.18869
19,8,2.2467,2.24672
20,8,2.30502,2.30504
21,8,2.3635,2.36352
22,8,2.42202,2.42203
23,8,2.48045,2.48046
24,8,2.53865,2.53867
25,8,2.5965,2.59651
26,8,2.65383,2.65384
27,8,2.71051,2.71052
28,8,2.76638,2.76639
29,8,2.82129,2.8213
30,8,2.87508,2.87508
31,8,2.92759,2.92759
1,9,1.36683,1.36683
2,9,1.41016,1.41017
3,9,1.45478,1.45479
4,9,1.50068,1.50069
5,9,1.54783,1.54785
6,9,1.59623,1.59624
7,9,1.64584,1.64585
8,9,1.69663,1.69665
9,9,1.74856,1.74858
10,9,1.8016,1.80162
11,9,1.85569,1.85572
12,9,1.91078,1.9108
13,9,1.96679,1.96682
14,9,2.02367,2.0237
15,9,2.08133,2.08136
16,9,2.1397,2.13972
17,9,2.19867,2.19869
18,9,2.25814,2.25817
19,9,2.31802,2.31804
20,9,2.37819,2.37821
21,9,2.43852,2.43854
22,9,2.4989,2.49892
23,9,2.55918,2.5592
24,9,2.61924,2.61925
25,9,2.67892,2.67893
26,9,2.73807,2.73808
27,9,2.79655,2.79656
28,9,2.8542,2.85421
29,9,2.91085,2.91085
30,9,2.96634,2.96635
31,9,3.02052,3.02052
1,10,1.41022,1.41022
2,10,1.45493,1.45493
3,10,1.50096,1.50097
4,10,1.54831,1.54833
5,10,1.59697,1.59698
6,10,1.6469,1.64691
7,10,1.69808,1.6981
8,10,1.75048,1.7505
9,10,1.80407,1.80409
10,10,1.85879,1.85881
11,10,1.9146,1.91462
12,10,1.97143,1.97146
13,10,2.02923,2.02925
14,10,2.08791,2.08794
15,10,2.1474,2.14743
16,10,2.20762,2.20764
17,10,2.26846,2.26848
18,10,2.32982,2.32985
19,10,2.3916,2.39163
20,10,2.45368,2.4537
21,10,2.51593,2.51595
22,10,2.57822,2.57824
23,10,2.64042,2.64044
24,10,2.70238,2.7024
25,10,2.76395,2.76397
26,10,2.82499,2.825
27,10,2.88533,2.88533
28,10,2.9448,2.94481
29,10,3.00325,3.00325
30,10,3.06051,3.06051
31,10,3.1164,3.1164
1,11,1.45498,1.45498
2,11,1.50111,1.50112
3,11,1.54861,1.54862
4,11,1.59746,1.59748
5,11,1.64766,1.64767
6,11,1.69917,1.69919
7,11,1.75198,1.752
8,11,1.80605,1.80607
9,11,1.86133,1.86136
10,11,1.91779,1.91782
11,11,1.97537,1.9754
12,11,2.03401,2.03404
13,11,2.09364,2.09367
14,11,2.15419,2.15421
15,11,2.21557,2.2156
16,11,2.27769,2.27772
17,11,2.34047,2.34049
18,11,2.40378,2.4038
19,11,2.46752,2.46754
20,11,2.53157,2.53159
21,11,2.59579,2.59581
22,11,2.66006,2.66008
23,11,2.72423,2.72425
24,11,2.78816,2.78818
25,11,2.85169,2.85171
26,11,2.91466,2.91468
27,11,2.97692,2.97692
28,11,3.03828,3.03829
29,11,3.09858,3.09859
30,11,3.15766,3.15766
31,11,3.21532,3.21533
1,12,1.50117,1.50117
2,12,1.54876,1.54877
3,12,1.59777,1.59778
4,12,1.64817,1.64819
5,12,1.69996,1.69998
6,12,1.75311,1.75313
7,12,1.8076,1.80762
8,12,1.86338,1.8634
9,12,1.92042,1.92044
10,12,1.97867,1.9787
11,12,2.03808,2.0381
12,12,2.09858,2.0986
13,12,2.1601,2.16013
14,12,2.22257,2.2226
15,12,2.2859,2.28593
16,12,2.34999,2.35002
17,12,2.41476,2.41479
18,12,2.48008,2.48011
19,12,2.54584,2.54587
20,12,2.61193,2.61195
21,12,2.67819,2.67821
22,12,2.7445,2.74452
23,12,2.81071,2.81073
24,12,2.87667,2.87669
25,12,2.94221,2.94223
26,12,3.00719,3.0072
27,12,3.07141,3.07142
28,12,3.13472,3.13473
29,12,3.19694,3.19695
30,12,3.25789,3.25789
31,12,3.31739,3.31739
1,13,1.54882,1.54882
2,13,1.59792,1.59793
3,13,1.64848,1.64849
4,13,1.70049,1.7005
5,13,1.75392,1.75394
6,13,1.80876,1.80878
7,13,1.86497,1.865
8,13,1.92253,1.92255
9,13,1.98138,1.98141
10,13,2.04148,2.04151
11,13,2.10277,2.1028
12,13,2.16519,2.16522
13,13,2.22867,2.2287
14,13,2.29312,2.29315
15,13,2.35846,2.35849
16,13,2.42459,2.42462
17,13,2.49141,2.49144
18,13,2.55881,2.55884
19,13,2.62666,2.62669
20,13,2.69484,2.69486
21,13,2.7632,2.76323
22,13,2.83162,2.83164
23,13,2.89993,2.89995
24,13,2.96798,2.968
25,13,3.03561,3.03563
26,13,3.10264,3.10266
27,13,3.16891,3.16892
28,13,3.23423,3.23424
29,13,3.29842,3.29843
30,13,3.36131,3.36131
31,13,3.42269,3.4227
1,14,1.59798,1.59799
2,14,1.64865,1.64865
3,14,1.70081,1.70082
4,14,1.75447,1.75448
5,14,1.8096,1.80962
6,14,1.86618,1.8662
7,14,1.92418,1.9242
8,14,1.98356,1.98358
9,14,2.04428,2.0443
10,14,2.10628,2.10631
11,14,2.16952,2.16955
12,14,2.23392,2.23395
13,14,2.29941,2.29944
14,14,2.36591,2.36594
15,14,2.43332,2.43336
16,14,2.50156,2.50159
17,14,2.5705,2.57053
18,14,2.64003,2.64006
19,14,2.71004,2.71007
20,14,2.78038,2.78041
21,14,2.85092,2.85094
22,14,2.92151,2.92153
23,14,2.99199,2.99201
24,14,3.0622,3.06222
25,14,3.13197,3.13199
26,14,3.20113,3.20115
27,14,3.2695,3.26951
28,14,3.3369,3.3369
29,14,3.40313,3.40313
30,14,3.46801,3.46801
31,14,3.53134,3.53134
1,15,1.64871,1.64871
2,15,1.70098,1.70099
3,15,1.7548,1.75481
4,15,1.81016,1.81018
5,15,1.86704,1.86706
6,15,1.92542,1.92544
7,15,1.98526,1.98528
8,15,2.04652,2.04655
9,15,2.10917,2.1092
10,15,2.17314,2.17317
11,15,2.23839,2.23842
12,15,2.30483,2.30487
13,15,2.3724,2.37244
14,15,2.44101,2.44105
15,15,2.51057,2.5106
16,15,2.58096,2.581
17,15,2.65209,2.65213
18,15,2.72384,2.72387
19,15,2.79606,2.79609
20,15,2.86864,2.86867
21,15,2.94142,2.94144
22,15,3.01424,3.01427
23,15,3.08696,3.08698
24,15,3.1594,3.15942
25,15,3.23139,3.23141
26,15,3.30275,3.30276
27,15,3.37329,3.3733
28,15,3.44282,3.44283
29,15,3.51115,3.51116
30,15,3.57809,3.5781
31,15,3.64344,3.64344
1,16,1.70104,1.70105
2,16,1.75497,1.75498
3,16,1.81051,1.81052
4,16,1.86762,1.86764
5,16,1.92631,1.92633
6,16,1.98654,1.98656
7,16,2.04827,2.0483
8,16,2.11148,2.11151
9,16,2.17612,2.17615
10,16,2.24213,2.24216
11,16,2.30944,2.30947
12,16,2.378,2.37803
13,16,2.44771,2.44775
14,16,2.5185,2.51853
15,16,2.59026,2.59029
16,16,2.66289,2.66293
17,16,2.73628,2.73631
18,16,2.8103,2.81033
19,16,2.88482,2.88485
20,16,2.9597,2.95973
21,16,3.03479,3.03481
22,16,3.10993,3.10995
23,16,3.18495,3.18497
24,16,3.25969,3.25971
25,16,3.33397,3.33398
26,16,3.40759,3.4076
27,16,3.48037,3.48038
28,16,3.55211,3.55212
29,16,3.62261,3.62262
30,16,3.69167,3.69168
31,16,3.75909,3.7591
1,17,1.75504,1.75505
2,17,1.81068,1.81069
3,17,1.86798,1.86799
4,17,1.92691,1.92692
5,17,1.98746,1.98748
6,17,2.0496,2.04962
7,17,2.11329,2.11332
8,17,2.17851,2.17854
9,17,2.2452,2.24523
10,17,2.3133,2.31333
11,17,2.38275,2.38279
12,17,2.45348,2.45352
13,17,2.52541,2.52545
14,17,2.59844,2.59848
15,17,2.67248,2.67252
16,17,2.74742,2.74746
17,17,2.82314,2.82317
18,17,2.89951,2.89954
19,17,2.9764,2.97643
20,17,3.05365,3.05368
21,17,3.13112,3.13115
22,17,3.20865,3.20867
23,17,3.28605,3.28608
24,17,3.36317,3.36319
25,17,3.4398,3.43981
26,17,3.51576,3.51577
27,17,3.59085,3.59086
28,17,3.66486,3.66487
29,17,3.7376,3.73761
30,17,3.80886,3.80886
31,17,3.87842,3.87842
1,18,1.81075,1.81076
2,18,1.86816,1.86817
3,18,1.92727,1.92729
4,18,1.98807,1.98809
5,18,2.05054,2.05056
6,18,2.11466,2.11468
7,18,2.18038,2.1804
8,18,2.24766,2.24769
9,18,2.31647,2.3165
10,18,2.38673,2.38676
11,18,2.45839,2.45842
12,18,2.53137,2.5314
13,18,2.60558,2.60561
14,18,2.68093,2.68096
15,18,2.75732,2.75735
16,18,2.83464,2.83467
17,18,2.91276,2.91279
18,18,2.99155,2.99158
19,18,3.07088,3.07091
20,18,3.15058,3.15061
21,18,3.23052,3.23054
22,18,3.3105,3.31053
23,18,3.39037,3.39039
24,18,3.46993,3.46995
25,18,3.54899,3.54901
26,18,3.62736,3.62737
27,18,3.70483,3.70484
28,18,3.7812,3.78121
29,18,3.85625,3.85626
30,18,3.92977,3.92977
31,18,4.00153,4.00154
1,19,1.86823,1.86824
2,19,1.92746,1.92747
3,19,1.98845,1.98846
4,19,2.05118,2.0512
5,19,2.11564,2.11566
6,19,2.18178,2.18181
7,19,2.24959,2.24962
8,19,2.31901,2.31904
9,19,2.39,2.39003
10,19,2.4625,2.46253
11,19,2.53643,2.53646
12,19,2.61172,2.61176
13,19,2.68829,2.68832
14,19,2.76603,2.76607
15,19,2.84485,2.84488
16,19,2.92462,2.92465
17,19,3.00522,3.00525
18,19,3.08651,3.08655
19,19,3.16836,3.16839
20,19,3.2506,3.25062
21,19,3.33306,3.33309
22,19,3.41559,3.41561
23,19,3.49799,3.49801
24,19,3.58007,3.58009
25,19,3.66165,3.66166
26,19,3.7425,3.74252
27,19,3.82244,3.82245
28,19,3.90123,3.90124
29,19,3.97866,3.97867
30,19,4.05451,4.05452
31,19,4.12856,4.12856
1,20,1.92754,1.92754
2,20,1.98865,1.98866
3,20,2.05157,2.05159
4,20,2.1163,2.11631
5,20,2.18279,2.18281
6,20,2.25104,2.25106
7,20,2.321,2.32103
8,20,2.39263,2.39266
9,20,2.46587,2.4659
10,20,2.54067,2.5407
11,20,2.61695,2.61698
12,20,2.69463,2.69466
13,20,2.77362,2.77366
14,20,2.85384,2.85387
15,20,2.93515,2.93519
16,20,3.01746,3.01749
17,20,3.10062,3.10065
18,20,3.18449,3.18452
19,20,3.26893,3.26896
20,20,3.35378,3.35381
21,20,3.43887,3.43889
22,20,3.52401,3.52404
23,20,3.60903,3.60905
24,20,3.69372,3.69374
25,20,3.77788,3.7779
26,20,3.8613,3.86132
27,20,3.94377,3.94378
28,20,4.02507,4.02507
29,20,4.10496,4.10496
30,20,4.18322,4.18322
31,20,4.25961,4.25961
1,21,1.98872,1.98873
2,21,2.05177,2.05178
3,21,2.1167,2.11671
4,21,2.18347,2.18349
5,21,2.25209,2.2521
6,21,2.3225,2.32252
7,21,2.39468,2.3947
8,21,2.46858,2.46861
9,21,2.54415,2.54418
10,21,2.62132,2.62135
11,21,2.70002,2.70005
12,21,2.78017,2.7802
13,21,2.86167,2.8617
14,21,2.94443,2.94446
15,21,3.02833,3.02836
16,21,3.11324,3.11328
17,21,3.19904,3.19907
18,21,3.28558,3.28561
19,21,3.3727,3.37273
20,21,3.46024,3.46027
21,21,3.54803,3.54806
22,21,3.63588,3.6359
23,21,3.72359,3.72361
24,21,3.81097,3.81099
25,21,3.8978,3.89782
26,21,3.98388,3.98389
27,21,4.06896,4.06897
28,21,4.15284,4.15284
29,21,4.23526,4.23527
30,21,4.31601,4.31601
31,21,4.39483,4.39483
1,22,2.05185,2.05186
2,22,2.11691,2.11691
3,22,2.18389,2.1839
4,22,2.25279,2.2528
5,22,2.32357,2.32359
6,22,2.39622,2.39625
7,22,2.4707,2.47072
8,22,2.54694,2.54697
9,22,2.62491,2.62494
10,22,2.70453,2.70456
11,22,2.78573,2.78576
12,22,2.86842,2.86845
13,22,2.95251,2.95254
14,22,3.0379,3.03793
15,22,3.12446,3.12449
16,22,3.21207,3.2121
17,22,3.30059,3.30062
18,22,3.38988,3.38991
19,22,3.47976,3.47979
20,22,3.57009,3.57011
21,22,3.66066,3.66068
22,22,3.75129,3.75132
23,22,3.84179,3.84181
24,22,3.93194,3.93196
25,22,4.02153,4.02155
26,22,4.11034,4.11035
27,22,4.19813,4.19814
28,22,4.28466,4.28467
29,22,4.3697,4.36971
30,22,4.45301,4.45301
31,22,4.53433,4.53434
1,23,2.11698,2.11699
2,23,2.1841,2.18411
3,23,2.25321,2.25323
4,23,2.3243,2.32431
5,23,2.39733,2.39735
6,23,2.47229,2.47231
7,23,2.54913,2.54915
8,23,2.62779,2.62782
9,23,2.70823,2.70826
10,23,2.79038,2.79041
11,23,2.87416,2.87419
12,23,2.95948,2.95951
13,23,3.04624,3.04627
14,23,3.13433,3.13436
15,23,3.22364,3.22367
16,23,3.31403,3.31407
17,23,3.40537,3.4054
18,23,3.49749,3.49751
19,23,3.59023,3.59025
20,23,3.68341,3.68344
21,23,3.77686,3.77689
22,23,3.87037,3.8704
23,23,3.96374,3.96377
24,23,4.05676,4.05678
25,23,4.14919,4.14921
26,23,4.24082,4.24083
27,23,4.33139,4.3314
28,23,4.42067,4.42068
29,23,4.50841,4.50842
30,23,4.59436,4.59437
31,23,4.67827,4.67827
1,24,2.18419,2.18419
2,24,2.25344,2.25344
3,24,2.32474,2.32475
4,24,2.39808,2.3981
5,24,2.47344,2.47345
6,24,2.55077,2.55079
7,24,2.63005,2.63007
8,24,2.71121,2.71123
9,24,2.7942,2.79423
10,24,2.87896,2.87899
11,24,2.9654,2.96542
12,24,3.05342,3.05345
13,24,3.14294,3.14297
14,24,3.23383,3.23386
15,24,3.32597,3.326
16,24,3.41923,3.41926
17,24,3.51347,3.5135
18,24,3.60851,3.60854
19,24,3.70419,3.70422
20,24,3.80034,3.80037
21,24,3.89675,3.89678
22,24,3.99324,3.99326
23,24,4.08957,4.08959
24,24,4.18554,4.18555
25,24,4.2809,4.28092
26,24,4.37543,4.37545
27,24,4.46888,4.46889
28,24,4.561,4.56101
29,24,4.65153,4.65153
30,24,4.74021,4.74021
31,24,4.82677,4.82677
1,25,2.25352,2.25352
2,25,2.32497,2.32498
3,25,2.39854,2.39855
4,25,2.47421,2.47422
5,25,2.55195,2.55197
6,25,2.63174,2.63176
7,25,2.71353,2.71355
8,25,2.79728,2.7973
9,25,2.8829,2.88293
10,25,2.97035,2.97038
11,25,3.05953,3.05956
12,25,3.15035,3.15038
13,25,3.24271,3.24274
14,25,3.33648,3.33651
15,25,3.43155,3.43158
16,25,3.52778,3.5278
17,25,3.625,3.62503
18,25,3.72306,3.72309
19,25,3.82178,3.82181
20,25,3.92098,3.921
21,25,4.02045,4.02048
22,25,4.12,4.12002
23,25,4.21939,4.21941
24,25,4.3184,4.31842
25,25,4.4168,4.41681
26,25,4.51433,4.51434
27,25,4.61074,4.61075
28,25,4.70578,4.70579
29,25,4.79918,4.79919
30,25,4.89068,4.89068
31,25,4.97999,4.97999
1,26,2.32505,2.32506
2,26,2.39877,2.39878
3,26,2.47467,2.47468
4,26,2.55275,2.55276
5,26,2.63296,2.63298
6,26,2.71528,2.7153
7,26,2.79967,2.79969
8,26,2.88607,2.88609
9,26,2.97442,2.97444
10,26,3.06464,3.06467
11,26,3.15665,3.15668
12,26,3.25036,3.25038
13,26,3.34565,3.34567
14,26,3.4424,3.44243
15,26,3.54049,3.54051
16,26,3.63976,3.63979
17,26,3.74007,3.7401
18,26,3.84124,3.84127
19,26,3.9431,3.94312
20,26,4.04545,4.04547
21,26,4.14808,4.1481
22,26,4.25078,4.2508
23,26,4.35333,4.35334
24,26,4.45548,4.4555
25,26,4.557,4.55701
26,26,4.65763,4.65764
27,26,4.7571,4.75711
28,26,4.85516,4.85517
29,26,4.95153,4.95153
30,26,5.04592,5.04593
31,26,5.13807,5.13807
1,27,2.39886,2.39886
2,27,2.47492,2.47492
3,27,2.55323,2.55324
4,27,2.63378,2.63379
5,27,2.71654,2.71656
6,27,2.80148,2.8015
7,27,2.88855,2.88856
8,27,2.97769,2.97771
9,27,3.06884,3.06886
10,27,3.16193,3.16195
11,27,3.25686,3.25688
12,27,3.35354,3.35356
13,27,3.45185,3.45187
14,27,3.55168,3.5517
15,27,3.65288,3.6529
16,27,3.7553,3.75533
17,27,3.8588,3.85882
18,27,3.96318,3.9632
19,27,4.06827,4.06829
20,27,4.17387,4.17389
21,27,4.27976,4.27977
22,27,4.38572,4.38573
23,27,4.49152,4.49153
24,27,4.59692,4.59693
25,27,4.70166,4.70167
26,27,4.80548,4.80549
27,27,4.90811,4.90812
28,27,5.00928,5.00929
29,27,5.10871,5.10871
30,27,5.2061,5.2061
31,27,5.30117,5.30117
1,28,2.47501,2.47501
2,28,2.55348,2.55349
3,28,2.63428,2.63429
4,28,2.71739,2.7174
5,28,2.80278,2.80279
6,28,2.89041,2.89042
7,28,2.98024,2.98026
8,28,3.07221,3.07223
9,28,3.16626,3.16628
10,28,3.2623,3.26232
11,28,3.36025,3.36027
12,28,3.45999,3.46001
13,28,3.56143,3.56145
14,28,3.66442,3.66444
15,28,3.76884,3.76886
16,28,3.87451,3.87453
17,28,3.98129,3.98131
18,28,4.08899,4.08901
19,28,4.19742,4.19743
20,28,4.30636,4.30638
21,28,4.41561,4.41563
22,28,4.52494,4.52495
23,28,4.6341,4.63411
24,28,4.74284,4.74285
25,28,4.85091,4.85092
26,28,4.95802,4.95803
27,28,5.06391,5.06392
28,28,5.16829,5.1683
29,28,5.27087,5.27088
30,28,5.37136,5.37136
31,28,5.46945,5.46945
1,29,2.55357,2.55358
2,29,2.63454,2.63454
3,29,2.7179,2.71791
4,29,2.80365,2.80366
5,29,2.89175,2.89176
6,29,2.98217,2.98218
7,29,3.07485,3.07486
8,29,3.16974,3.16975
9,29,3.26677,3.26679
10,29,3.36586,3.36588
11,29,3.46692,3.46693
12,29,3.56983,3.56985
13,29,3.67449,3.6745
14,29,3.78075,3.78076
15,29,3.88848,3.88849
16,29,3.99751,3.99753
17,29,4.10768,4.10769
18,29,4.21879,4.21881
19,29,4.33066,4.33067
20,29,4.44306,4.44308
21,29,4.55578,4.5558
22,29,4.66858,4.66859
23,29,4.7812,4.78121
24,29,4.8934,4.89341
25,29,5.00489,5.0049
26,29,5.11541,5.11542
27,29,5.22466,5.22467
28,29,5.33235,5.33236
29,29,5.43819,5.43819
30,29,5.54186,5.54187
31,29,5.64307,5.64307
1,30,2.63463,2.63464
2,30,2.71817,2.71817
3,30,2.80418,2.80418
4,30,2.89265,2.89265
5,30,2.98355,2.98355
6,30,3.07683,3.07684
7,30,3.17246,3.17247
8,30,3.27036,3.27037
9,30,3.37048,3.37049
10,30,3.47271,3.47272
11,30,3.57697,3.57698
12,30,3.68315,3.68317
13,30,3.79113,3.79114
14,30,3.90077,3.90078
15,30,4.01191,4.01193
16,30,4.12441,4.12442
17,30,4.23807,4.23808
18,30,4.35272,4.35273
19,30,4.46813,4.46814
20,30,4.58411,4.58412
21,30,4.7004,4.70041
22,30,4.81678,4.81679
23,30,4.93298,4.93299
24,30,5.04873,5.04874
25,30,5.16377,5.16377
26,30,5.27779,5.2778
27,30,5.39051,5.39051
28,30,5.50162,5.50162
29,30,5.61082,5.61082
30,30,5.71778,5.71778
31,30,5.8222,5.8222
1,31,2.71827,2.71827
2,31,2.80445,2.80446
3,31,2.8932,2.8932
4,31,2.98447,2.98448
5,31,3.07826,3.07826
6,31,3.17451,3.17451
7,31,3.27317,3.27317
8,31,3.37418,3.37419
9,31,3.47747,3.47748
10,31,3.58295,3.58296
11,31,3.69052,3.69053
12,31,3.80008,3.80008
13,31,3.91148,3.91149
14,31,4.0246,4.0246
15,31,4.13927,4.13928
16,31,4.25534,4.25534
17,31,4.37261,4.37262
18,31,4.49089,4.4909
19,31,4.60997,4.60998
20,31,4.72963,4.72963
21,31,4.84961,4.84962
22,31,4.96968,4.96969
23,31,5.08957,5.08958
24,31,5.209,5.209
25,31,5.32769,5.32769
26,31,5.44533,5.44533
27,31,5.56163,5.56163
28,31,5.67626,5.67627
29,31,5.78892,5.78893
30,31,5.89928,5.89928
31,31,6.00702,6.00702
