18,1,-0.149447,1.34069
19,1,0.631958,1.36092
20,1,0.936256,1.38135
21,1,1.08311,1.40199
22,1,1.16933,1.42283
23,1,1.22838,1.44385
24,1,1.27357,1.46506
25,1,1.31095,1.48645
26,1,1.34358,1.50801
27,1,1.37317,1.52974
28,1,1.40071,1.55162
29,1,1.42684,1.57366
30,1,1.45197,1.59583
31,1,1.47638,1.61814
32,1,1.50025,1.64058
33,1,1.52373,1.66313
34,1,1.54689,1.68579
35,1,1.56982,1.70855
36,1,1.59255,1.7314
37,1,1.61513,1.75432
38,1,1.63756,1.7773
39,1,1.65988,1.80035
40,1,1.68208,1.82344
41,1,1.70417,1.84655
42,1,1.72615,1.86969
43,1,1.74801,1.89284
44,1,1.76974,1.91599
45,1,1.79133,1.93911
46,1,1.81278,1.96221
47,1,1.83405,1.98526
48,1,1.85514,2.00825
49,1,1.87601,2.03117
50,1,1.89665,2.05401
51,1,1.91703,2.07674
52,1,1.9371,2.09936
53,1,1.95683,2.12185
54,1,1.97617,2.1442
55,1,1.99505,2.16638
56,1,2.01339,2.1884
57,1,2.03108,2.21022
58,1,2.04795,2.23183
59,1,2.06376,2.25322
60,1,2.07808,2.27438
61,1,2.09014,2.29528
62,1,2.09827,2.31591
63,1,2.09834,2.33626
18,2,0.0395614,1.3618
19,2,0.401743,1.38235
20,2,0.670556,1.40311
21,2,0.847151,1.42407
22,2,0.965603,1.44523
23,2,1.04968,1.46659
24,2,1.11314,1.48813
25,2,1.16378,1.50986
26,2,1.20612,1.53176
27,2,1.24288,1.55383
28,2,1.27579,1.57606
29,2,1.30595,1.59844
30,2,1.3341,1.62096
31,2,1.36076,1.64363
32,2,1.38628,1.66642
33,2,1.41092,1.68932
34,2,1.43487,1.71234
35,2,1.45827,1.73546
36,2,1.48121,1.75866
37,2,1.50376,1.78194
38,2,1.52599,1.80529
39,2,1.54792,1.8287
40,2,1.56959,1.85215
41,2,1.591,1.87563
42,2,1.61217,1.89914
43,2,1.6331,1.92265
44,2,1.65379,1.94616
45,2,1.67422,1.96965
46,2,1.69437,1.99311
47,2,1.71424,2.01652
48,2,1.73379,2.03988
49,2,1.75299,2.06316
50,2,1.77181,2.08635
51,2,1.79021,2.10945
52,2,1.80812,2.13242
53,2,1.82548,2.15527
54,2,1.84221,2.17796
55,2,1.8582,2.2005
56,2,1.87332,2.22286
57,2,1.88736,2.24502
58,2,1.90006,2.26698
59,2,1.91102,2.2887
60,2,1.91962,2.31019
61,2,1.92482,2.33142
62,2,1.92488,2.35238
63,2,1.91687,2.37305
18,3,-0.0327831,1.38324
19,3,0.265446,1.40412
20,3,0.49762,1.4252
21,3,0.669879,1.4465
22,3,0.796797,1.46799
23,3,0.892147,1.48968
24,3,0.966078,1.51157
25,3,1.02544,1.53364
26,3,1.07476,1.55588
27,3,1.117,1.5783
28,3,1.15416,1.60088
29,3,1.1876,1.62361
30,3,1.21826,1.64649
31,3,1.2468,1.66951
32,3,1.27371,1.69266
33,3,1.29934,1.71593
34,3,1.32393,1.73931
35,3,1.34769,1.76279
36,3,1.37075,1.78636
37,3,1.39323,1.81
38,3,1.4152,1.83372
39,3,1.43672,1.8575
40,3,1.45783,1.88132
41,3,1.47855,1.90517
42,3,1.49891,1.92905
43,3,1.51891,1.95293
44,3,1.53855,1.97681
45,3,1.55782,2.00067
46,3,1.5767,2.02449
47,3,1.59517,2.04828
48,3,1.61321,2.072
49,3,1.63077,2.09565
50,3,1.64781,2.11921
51,3,1.66426,2.14267
52,3,1.68007,2.166
53,3,1.69514,2.18921
54,3,1.70936,2.21226
55,3,1.72259,2.23515
56,3,1.73466,2.25786
57,3,1.74532,2.28038
58,3,1.75425,2.30268
59,3,1.76097,2.32475
60,3,1.76485,2.34657
61,3,1.76492,2.36814
62,3,1.75984,2.38943
63,3,1.74787,2.41042
18,4,-0.0262198,1.40503
19,4,0.195761,1.42623
20,4,0.385154,1.44765
21,4,0.538505,1.46927
22,4,0.660113,1.49111
23,4,0.756587,1.51314
24,4,0.834134,1.53537
25,4,0.897715,1.55779
26,4,0.951028,1.58038
27,4,0.996749,1.60315
28,4,1.0368,1.62609
29,4,1.07258,1.64918
30,4,1.10507,1.67242
31,4,1.13502,1.6958
32,4,1.16296,1.71931
33,4,1.1893,1.74295
34,4,1.21435,1.7667
35,4,1.23832,1.79055
36,4,1.2614,1.81449
37,4,1.28372,1.83851
38,4,1.30537,1.8626
39,4,1.32643,1.88675
40,4,1.34694,1.91094
41,4,1.36696,1.93517
42,4,1.38649,1.95942
43,4,1.40555,1.98368
44,4,1.42414,2.00794
45,4,1.44226,2.03217
46,4,1.45988,2.05637
47,4,1.47699,2.08053
48,4,1.49354,2.10463
49,4,1.50949,2.12865
50,4,1.52479,2.15258
51,4,1.53937,2.17641
52,4,1.55315,2.20011
53,4,1.56602,2.22368
54,4,1.57786,2.2471
55,4,1.58851,2.27035
56,4,1.59776,2.29342
57,4,1.60536,2.31629
58,4,1.61096,2.33894
59,4,1.6141,2.36136
60,4,1.6142,2.38353
61,4,1.61048,2.40543
62,4,1.60199,2.42705
63,4,1.58771,2.44838
18,5,-0.00657069,1.42715
19,5,0.159227,1.44869
20,5,0.309295,1.47044
21,5,0.439437,1.49241
22,5,0.549127,1.51459
23,5,0.640516,1.53697
24,5,0.716719,1.55955
25,5,0.780816,1.58232
26,5,0.835445,1.60527
27,5,0.88272,1.6284
28,5,0.924282,1.65169
29,5,0.961384,1.67515
30,5,0.994976,1.69876
31,5,1.02578,1.72251
32,5,1.05435,1.74639
33,5,1.08111,1.7704
34,5,1.10637,1.79452
35,5,1.13038,1.81874
36,5,1.15334,1.84306
37,5,1.17539,1.86746
38,5,1.19664,1.89193
39,5,1.21718,1.91646
40,5,1.23706,1.94104
41,5,1.25633,1.96565
42,5,1.27502,1.99028
43,5,1.29314,2.01492
44,5,1.31069,2.03956
45,5,1.32766,2.06417
46,5,1.34404,2.08876
47,5,1.3598,2.1133
48,5,1.37491,2.13777
49,5,1.3893,2.16217
50,5,1.40292,2.18648
51,5,1.4157,2.21068
52,5,1.42754,2.23476
53,5,1.43834,2.2587
54,5,1.44794,2.28249
55,5,1.4562,2.3061
56,5,1.46289,2.32953
57,5,1.46775,2.35276
58,5,1.47046,2.37577
59,5,1.4706,2.39854
60,5,1.46769,2.42106
61,5,1.46111,2.44331
62,5,1.45022,2.46528
63,5,1.43439,2.48694
17,6,-0.031424,1.42798
18,6,0.0300338,1.44963
19,6,0.138996,1.4715
20,6,0.253936,1.4936
21,6,0.361396,1.51591
22,6,0.457016,1.53844
23,6,0.540202,1.56118
24,6,0.611981,1.58411
25,6,0.673954,1.60724
26,6,0.727783,1.63055
27,6,0.774969,1.65404
28,6,0.816783,1.6777
29,6,0.854259,1.70153
30,6,0.888225,1.72551
31,6,0.919337,1.74963
32,6,0.948111,1.77389
33,6,0.974951,1.79828
34,6,1.00018,1.82278
35,6,1.02404,1.84738
36,6,1.04672,1.87208
37,6,1.06839,1.89687
38,6,1.08916,1.92172
39,6,1.1091,1.94664
40,6,1.1283,1.9716
41,6,1.1468,1.9966
42,6,1.16462,2.02162
43,6,1.18178,2.04665
44,6,1.19829,2.07167
45,6,1.21413,2.09668
46,6,1.22929,2.12165
47,6,1.24373,2.14657
48,6,1.25743,2.17144
49,6,1.27031,2.19622
50,6,1.28232,2.22091
51,6,1.29338,2.24549
52,6,1.30339,2.26995
53,6,1.31223,2.29427
54,6,1.31977,2.31843
55,6,1.32582,2.34242
56,6,1.3302,2.36622
57,6,1.33265,2.38981
58,6,1.33286,2.41318
59,6,1.3305,2.43631
60,6,1.32515,2.45919
61,6,1.31636,2.48179
62,6,1.30368,2.5041
63,6,1.28671,2.5261
17,7,-0.0775813,1.45047
18,7,0.0197162,1.47246
19,7,0.11337,1.49467
20,7,0.20664,1.51712
21,7,0.295776,1.53979
22,7,0.377921,1.56267
23,7,0.451877,1.58576
24,7,0.51763,1.60906
25,7,0.575815,1.63255
26,7,0.627339,1.65623
27,7,0.673166,1.68009
28,7,0.714194,1.70412
29,7,0.751214,1.72832
30,7,0.784895,1.75268
31,7,0.815793,1.77718
32,7,0.844361,1.80183
33,7,0.870965,1.8266
34,7,0.895901,1.85148
35,7,0.919405,1.87648
36,7,0.941664,1.90157
37,7,0.962828,1.92674
38,7,0.983011,1.95199
39,7,1.0023,1.9773
40,7,1.02076,2.00265
41,7,1.03845,2.02804
42,7,1.05538,2.05346
43,7,1.07157,2.07888
44,7,1.08704,2.1043
45,7,1.10176,2.1297
46,7,1.11572,2.15506
47,7,1.12888,2.18038
48,7,1.14121,2.20563
49,7,1.15264,2.23081
50,7,1.16311,2.25589
51,7,1.17253,2.28086
52,7,1.18081,2.3057
53,7,1.18784,2.3304
54,7,1.19346,2.35494
55,7,1.19751,2.37931
56,7,1.19982,2.40348
57,7,1.20013,2.42745
58,7,1.1982,2.45119
59,7,1.19373,2.47468
60,7,1.18638,2.49791
61,7,1.17583,2.52087
62,7,1.16174,2.54353
63,7,1.14385,2.56588
17,8,-0.0628115,1.47331
18,8,0.013634,1.49564
19,8,0.0887191,1.51821
20,8,0.164071,1.54101
21,8,0.237738,1.56403
22,8,0.307605,1.58728
23,8,0.372346,1.61073
24,8,0.431437,1.63439
25,8,0.484922,1.65826
26,8,0.53318,1.68231
27,8,0.576744,1.70655
28,8,0.616194,1.73096
29,8,0.652085,1.75554
30,8,0.684924,1.78028
31,8,0.715151,1.80517
32,8,0.743141,1.8302
33,8,0.76921,1.85536
34,8,0.793616,1.88064
35,8,0.816572,1.90603
36,8,0.83825,1.93151
37,8,0.858789,1.95708
38,8,0.878296,1.98273
39,8,0.896855,2.00843
40,8,0.914528,2.03419
41,8,0.931361,2.05998
42,8,0.94738,2.08579
43,8,0.962601,2.11162
44,8,0.977023,2.13744
45,8,0.990636,2.16323
46,8,1.00342,2.189
47,8,1.01533,2.21471
48,8,1.02634,2.24036
49,8,1.03638,2.26594
50,8,1.04538,2.29141
51,8,1.05326,2.31677
52,8,1.05992,2.34201
53,8,1.06525,2.3671
54,8,1.06911,2.39203
55,8,1.07135,2.41678
56,8,1.07179,2.44133
57,8,1.07023,2.46567
58,8,1.06644,2.48979
59,8,1.06017,2.51365
60,8,1.05116,2.53725
61,8,1.03915,2.56057
62,8,1.02391,2.58359
63,8,1.00525,2.60629
16,9,-0.0439099,1.47407
17,9,-0.0338553,1.49651
18,9,0.00951278,1.5192
19,9,0.0644022,1.54212
20,9,0.12379,1.56528
21,9,0.1841,1.58866
22,9,0.243016,1.61227
23,9,0.299066,1.6361
24,9,0.351448,1.66013
25,9,0.399854,1.68437
26,9,0.444308,1.7088
27,9,0.485031,1.73342
28,9,0.522342,1.75822
29,9,0.556597,1.78319
30,9,0.588149,1.80832
31,9,0.617326,1.8336
32,9,0.644421,1.85902
33,9,0.66969,1.88458
34,9,0.693348,1.91025
35,9,0.71558,1.93604
36,9,0.736534,1.96193
37,9,0.756333,1.9879
38,9,0.775074,2.01395
39,9,0.792834,2.04006
40,9,0.809667,2.06622
41,9,0.825615,2.09242
42,9,0.840701,2.11864
43,9,0.854937,2.14487
44,9,0.868321,2.1711
45,9,0.880839,2.1973
46,9,0.892469,2.22347
47,9,0.903173,2.24959
48,9,0.912906,2.27565
49,9,0.92161,2.30162
50,9,0.929216,2.32749
51,9,0.935641,2.35326
52,9,0.940789,2.37889
53,9,0.94455,2.40437
54,9,0.946796,2.4297
55,9,0.947385,2.45484
56,9,0.946156,2.47978
57,9,0.942928,2.5045
58,9,0.937509,2.52899
59,9,0.929692,2.55323
60,9,0.919268,2.57721
61,9,0.906036,2.60089
62,9,0.889816,2.62427
63,9,0.870475,2.64733
15,10,-0.0600857,1.47475
16,10,-0.0545305,1.49729
17,10,-0.0376028,1.52008
18,10,-0.00551952,1.54312
19,10,0.0361978,1.56641
20,10,0.0831962,1.58993
21,10,0.132467,1.61368
22,10,0.181902,1.63766
23,10,0.230062,1.66186
24,10,0.276042,1.68628
25,10,0.319344,1.71089
26,10,0.359773,1.73571
27,10,0.397331,1.76072
28,10,0.432145,1.78591
29,10,0.464408,1.81127
30,10,0.494342,1.83679
31,10,0.522173,1.86247
32,10,0.548114,1.8883
33,10,0.572361,1.91426
34,10,0.595085,1.94034
35,10,0.616436,1.96653
36,10,0.636539,1.99282
37,10,0.655495,2.01921
38,10,0.67339,2.04567
39,10,0.690286,2.07219
40,10,0.706233,2.09876
41,10,0.721265,2.12537
42,10,0.735399,2.15201
43,10,0.748644,2.17865
44,10,0.760994,2.20529
45,10,0.772434,2.2319
46,10,0.782938,2.25849
47,10,0.792468,2.28502
48,10,0.800977,2.31148
49,10,0.808407,2.33786
50,10,0.81469,2.36415
51,10,0.819744,2.39032
52,10,0.823478,2.41635
53,10,0.825785,2.44224
54,10,0.826549,2.46796
55,10,0.825638,2.49349
56,10,0.822906,2.51883
57,10,0.818197,2.54394
58,10,0.811345,2.56882
59,10,0.802179,2.59344
60,10,0.790528,2.61779
61,10,0.776235,2.64185
62,10,0.759162,2.6656
63,10,0.739206,2.68902
15,11,-0.0990917,1.49797
16,11,-0.0759054,1.52086
17,11,-0.0558866,1.54402
18,11,-0.029566,1.56742
19,11,0.00333259,1.59107
20,11,0.0409504,1.61497
21,11,0.0812904,1.63909
22,11,0.122682,1.66345
23,11,0.163858,1.68803
24,11,0.203929,1.71283
25,11,0.242324,1.73784
26,11,0.278723,1.76304
27,11,0.312988,1.78845
28,11,0.345109,1.81403
29,11,0.375155,1.83979
30,11,0.403242,1.86572
31,11,0.429508,1.8918
32,11,0.454096,1.91803
33,11,0.477144,1.9444
34,11,0.498782,1.97089
35,11,0.519123,1.9975
36,11,0.538264,2.02421
37,11,0.55629,2.051
38,11,0.573266,2.07788
39,11,0.589245,2.10482
40,11,0.604265,2.13181
41,11,0.618353,2.15884
42,11,0.631521,2.18589
43,11,0.643771,2.21296
44,11,0.655096,2.24001
45,11,0.665475,2.26705
46,11,0.674881,2.29405
47,11,0.683275,2.321
48,11,0.690608,2.34788
49,11,0.696824,2.37468
50,11,0.701853,2.40138
51,11,0.705619,2.42796
52,11,0.708033,2.4544
53,11,0.708995,2.4807
54,11,0.708397,2.50682
55,11,0.706118,2.53276
56,11,0.702029,2.55849
57,11,0.695993,2.584
58,11,0.687868,2.60927
59,11,0.67751,2.63428
60,11,0.66478,2.65902
61,11,0.64955,2.68345
62,11,0.631713,2.70758
63,11,0.61119,2.73136
14,12,-0.0823841,1.49857
15,12,-0.0988178,1.52156
16,12,-0.0934848,1.54481
17,12,-0.0798434,1.56833
18,12,-0.0595607,1.5921
19,12,-0.0336218,1.61613
20,12,-0.00338757,1.6404
21,12,0.0296917,1.66491
22,12,0.0643073,1.68965
23,12,0.0993881,1.71462
24,12,0.13412,1.7398
25,12,0.167926,1.7652
26,12,0.200429,1.79081
27,12,0.231409,1.81661
28,12,0.260765,1.8426
29,12,0.288476,1.86876
30,12,0.314575,1.8951
31,12,0.339129,1.92159
32,12,0.362221,1.94824
33,12,0.383939,1.97502
34,12,0.404371,2.00193
35,12,0.423597,2.02895
36,12,0.44169,2.05608
37,12,0.458711,2.0833
38,12,0.474711,2.1106
39,12,0.489727,2.13797
40,12,0.503788,2.16538
41,12,0.516912,2.19284
42,12,0.529103,2.22032
43,12,0.54036,2.24781
44,12,0.550669,2.27529
45,12,0.560008,2.30275
46,12,0.568345,2.33018
47,12,0.575641,2.35755
48,12,0.581847,2.38486
49,12,0.586906,2.41208
50,12,0.59075,2.43919
51,12,0.593305,2.46619
52,12,0.594487,2.49305
53,12,0.594202,2.51976
54,12,0.59235,2.5463
55,12,0.588821,2.57265
56,12,0.583501,2.59878
57,12,0.576269,2.6247
58,12,0.567001,2.65036
59,12,0.555578,2.67577
60,12,0.541883,2.70089
61,12,0.525813,2.72571
62,12,0.50728,2.75021
63,12,0.486221,2.77438
13,13,-0.0927508,1.49909
14,13,-0.109661,1.52217
15,13,-0.119674,1.54552
16,13,-0.118735,1.56914
17,13,-0.109803,1.59303
18,13,-0.0945722,1.61718
19,13,-0.0742317,1.64158
20,13,-0.0499306,1.66623
21,13,-0.0228034,1.69112
22,13,0.00610626,1.71626
23,13,0.0359049,1.74162
24,13,0.0658736,1.7672
25,13,0.0954661,1.793
26,13,0.124291,1.81901
27,13,0.152087,1.84522
28,13,0.178695,1.87161
29,13,0.204034,1.89819
30,13,0.228076,1.92494
31,13,0.250831,1.95186
32,13,0.272334,1.97892
33,13,0.29263,2.00612
34,13,0.31177,2.03346
35,13,0.329805,2.06091
36,13,0.346782,2.08846
37,13,0.362742,2.11611
38,13,0.377719,2.14384
39,13,0.391739,2.17163
40,13,0.404817,2.19948
41,13,0.416961,2.22737
42,13,0.428172,2.25528
43,13,0.43844,2.2832
44,13,0.447747,2.31112
45,13,0.456067,2.33901
46,13,0.463367,2.36687
47,13,0.469605,2.39468
48,13,0.474731,2.42241
49,13,0.478689,2.45006
50,13,0.481413,2.47761
51,13,0.48283,2.50503
52,13,0.482861,2.53231
53,13,0.481419,2.55944
54,13,0.478411,2.5864
55,13,0.473737,2.61316
56,13,0.467294,2.63971
57,13,0.458975,2.66603
58,13,0.448675,2.6921
59,13,0.436289,2.7179
60,13,0.421721,2.74342
61,13,0.404885,2.76863
62,13,0.385707,2.79352
63,13,0.364136,2.81807
12,14,-0.109627,1.49953
13,14,-0.129437,1.52269
14,14,-0.143189,1.54614
15,14,-0.150836,1.56986
16,14,-0.151329,1.59385
17,14,-0.145411,1.61812
18,14,-0.134044,1.64264
19,14,-0.118152,1.66743
20,14,-0.0986495,1.69247
21,14,-0.0764313,1.71776
22,14,-0.0523346,1.74328
23,14,-0.0271,1.76904
24,14,-0.00134951,1.79503
25,14,0.024419,1.82124
26,14,0.0498255,1.84766
27,14,0.0745936,1.87427
28,14,0.0985333,1.90109
29,14,0.121523,1.92809
30,14,0.143494,1.95526
31,14,0.164414,1.98259
32,14,0.184277,2.01008
33,14,0.203095,2.03771
34,14,0.220887,2.06548
35,14,0.237678,2.09336
36,14,0.253493,2.12135
37,14,0.268353,2.14943
38,14,0.282276,2.1776
39,14,0.295275,2.20583
40,14,0.307354,2.23412
41,14,0.318514,2.26245
42,14,0.328745,2.2908
43,14,0.338032,2.31916
44,14,0.346354,2.34751
45,14,0.353681,2.37585
46,14,0.359976,2.40415
47,14,0.365195,2.43239
48,14,0.369289,2.46056
49,14,0.3722,2.48864
50,14,0.373865,2.51662
51,14,0.374214,2.54448
52,14,0.373171,2.57219
53,14,0.370654,2.59975
54,14,0.366576,2.62713
55,14,0.360848,2.65431
56,14,0.353376,2.68128
57,14,0.344065,2.70801
58,14,0.332823,2.73449
59,14,0.31956,2.76071
60,14,0.304193,2.78662
61,14,0.286648,2.81223
62,14,0.266866,2.83751
63,14,0.244802,2.86245
10,15,-0.10035,1.47697
11,15,-0.149662,1.49991
12,15,-0.158545,1.52315
13,15,-0.171526,1.54667
14,15,-0.182169,1.57049
15,15,-0.188496,1.59458
16,15,-0.189677,1.61895
17,15,-0.185809,1.6436
18,15,-0.177381,1.66851
19,15,-0.165024,1.69369
20,15,-0.149424,1.71912
21,15,-0.131278,1.74481
22,15,-0.111254,1.77074
23,15,-0.0899622,1.7969
24,15,-0.0679335,1.8233
25,15,-0.0456105,1.84992
26,15,-0.0233482,1.87675
27,15,-0.00142044,1.90379
28,15,0.0199695,1.93103
29,15,0.0406771,1.95845
30,15,0.0606048,1.98605
31,15,0.0796909,2.01381
32,15,0.0978998,2.04174
33,15,0.115214,2.0698
34,15,0.13163,2.098
35,15,0.147147,2.12633
36,15,0.161771,2.15476
37,15,0.175507,2.18328
38,15,0.188357,2.21189
39,15,0.200322,2.24057
40,15,0.211397,2.2693
41,15,0.221571,2.29807
42,15,0.23083,2.32687
43,15,0.239151,2.35568
44,15,0.246509,2.38448
45,15,0.252869,2.41326
46,15,0.258192,2.442
47,15,0.262434,2.47069
48,15,0.265542,2.49931
49,15,0.26746,2.52783
50,15,0.268126,2.55625
51,15,0.267471,2.58455
52,15,0.265423,2.6127
53,15,0.261906,2.64069
54,15,0.256838,2.6685
55,15,0.250137,2.69611
56,15,0.241718,2.7235
57,15,0.231496,2.75066
58,15,0.219389,2.77756
59,15,0.205318,2.80418
60,15,0.189212,2.83051
61,15,0.171007,2.85652
62,15,0.150651,2.8822
63,15,0.128106,2.90752
9,16,-0.13471,1.47722
10,16,-0.159558,1.50022
11,16,-0.186768,1.52353
12,16,-0.202701,1.54713
13,16,-0.215292,1.57103
14,16,-0.224797,1.59522
15,16,-0.230635,1.61969
16,16,-0.232405,1.64445
17,16,-0.230097,1.66948
18,16,-0.223976,1.69479
19,16,-0.214467,1.72036
20,16,-0.202073,1.74619
21,16,-0.187331,1.77228
22,16,-0.170771,1.79862
23,16,-0.152893,1.8252
24,16,-0.134144,1.85201
25,16,-0.114913,1.87905
26,16,-0.0955235,1.90631
27,16,-0.0762353,1.93377
28,16,-0.0572536,1.96143
29,16,-0.0387339,1.98929
30,16,-0.020791,2.01732
31,16,-0.00350729,2.04553
32,16,0.01306,2.07389
33,16,0.0288721,2.1024
34,16,0.0439033,2.13104
35,16,0.0581365,2.15981
36,16,0.0715592,2.18869
37,16,0.0841614,2.21766
38,16,0.0959329,2.24672
39,16,0.106862,2.27585
40,16,0.116934,2.30504
41,16,0.126131,2.33426
42,16,0.13443,2.36352
43,16,0.141804,2.39278
44,16,0.148221,2.42203
45,16,0.153645,2.45127
46,16,0.158032,2.48046
47,16,0.161337,2.5096
48,16,0.163506,2.53867
49,16,0.164483,2.56764
50,16,0.164205,2.59651
51,16,0.162608,2.62525
52,16,0.159622,2.65384
53,16,0.155173,2.68227
54,16,0.149186,2.71052
55,16,0.141584,2.73857
56,16,0.13229,2.76639
57,16,0.121226,2.79397
58,16,0.10832,2.8213
59,16,0.0935008,2.84834
60,16,0.0767053,2.87508
61,16,0.0578782,2.9015
62,16,0.0369741,2.92759
63,16,0.0139593,2.95331
6,17,-0.125745,1.43224
7,17,-0.168111,1.45467
8,17,-0.188718,1.47742
9,17,-0.1985,1.50048
10,17,-0.215738,1.52385
11,17,-0.234483,1.54752
12,17,-0.249528,1.5715
13,17,-0.261468,1.59577
14,17,-0.270415,1.62034
15,17,-0.276164,1.6452
16,17,-0.278534,1.67034
17,17,-0.277517,1.69577
18,17,-0.273279,1.72148
19,17,-0.266114,1.74745
20,17,-0.25639,1.77369
21,17,-0.244521,1.80019
22,17,-0.230927,1.82694
23,17,-0.216014,1.85394
24,17,-0.20016,1.88118
25,17,-0.183699,1.90864
26,17,-0.166923,1.93633
27,17,-0.150072,1.96422
28,17,-0.133346,1.99232
29,17,-0.116902,2.02062
30,17,-0.100866,2.04909
31,17,-0.0853311,2.07774
32,17,-0.0703711,2.10655
33,17,-0.0560407,2.13551
34,17,-0.0423814,2.1646
35,17,-0.0294258,2.19382
36,17,-0.0172003,2.22316
37,17,-0.00572798,2.25259
38,17,0.00496942,2.2821
39,17,0.0148699,2.31169
40,17,0.0239499,2.34134
41,17,0.0321835,2.37102
42,17,0.0395417,2.40074
43,17,0.0459916,2.43046
44,17,0.0514968,2.46017
45,17,0.0560165,2.48987
46,17,0.0595056,2.51952
47,17,0.061915,2.54912
48,17,0.0631915,2.57864
49,17,0.0632775,2.60808
50,17,0.0621122,2.6374
51,17,0.0596311,2.66659
52,17,0.0557668,2.69563
53,17,0.0504497,2.72451
54,17,0.0436084,2.75321
55,17,0.0351708,2.78169
56,17,0.0250654,2.80996
57,17,0.0132218,2.83797
58,17,-0.000427312,2.86573
59,17,-0.0159447,2.89319
60,17,-0.0333874,2.92036
61,17,-0.0528047,2.9472
62,17,-0.0742372,2.97369
63,17,-0.097715,2.99982
1,18,-0.152794,1.34565
2,18,-0.158865,1.36683
3,18,-0.16742,1.38834
4,18,-0.178702,1.41017
5,18,-0.190917,1.43232
6,18,-0.199467,1.45479
7,18,-0.221017,1.47758
8,18,-0.239397,1.50069
9,18,-0.25416,1.52411
10,18,-0.269734,1.54785
11,18,-0.285216,1.57189
12,18,-0.298778,1.59624
13,18,-0.309954,1.6209
14,18,-0.318545,1.64585
15,18,-0.324384,1.67111
16,18,-0.327359,1.69665
17,18,-0.327467,1.72248
18,18,-0.324819,1.74858
19,18,-0.319626,1.77497
20,18,-0.312162,1.80162
21,18,-0.302745,1.82854
22,18,-0.291709,1.85572
23,18,-0.279386,1.88314
24,18,-0.266092,1.9108
25,18,-0.252115,1.9387
26,18,-0.237711,1.96682
27,18,-0.223102,1.99516
28,18,-0.208476,2.0237
29,18,-0.193988,2.05244
30,18,-0.179766,2.08136
31,18,-0.165912,2.11046
32,18,-0.152509,2.13972
33,18,-0.139623,2.16914
34,18,-0.127309,2.19869
35,18,-0.11561,2.22837
36,18,-0.104565,2.25817
37,18,-0.0942073,2.28806
38,18,-0.084569,2.31804
39,18,-0.0756809,2.3481
40,18,-0.0675746,2.37821
41,18,-0.0602832,2.40836
42,18,-0.0538418,2.43854
43,18,-0.0482883,2.46873
44,18,-0.0436639,2.49892
45,18,-0.0400129,2.52908
46,18,-0.037383,2.5592
47,18,-0.0358256,2.58926
48,18,-0.0353952,2.61925
49,18,-0.0361498,2.64915
50,18,-0.0381501,2.67893
51,18,-0.0414596,2.70858
52,18,-0.0461438,2.73808
53,18,-0.05227,2.76742
54,18,-0.0599061,2.79656
55,18,-0.0691202,2.8255
56,18,-0.0799795,2.85421
57,18,-0.0925492,2.88266
58,18,-0.106891,2.91085
59,18,-0.123063,2.93876
60,18,-0.141117,2.96635
61,18,-0.161098,2.99361
62,18,-0.183043,3.02052
63,18,-0.206978,3.04706
1,19,-0.191546,1.36684
2,19,-0.206053,1.38836
3,19,-0.21915,1.4102
4,19,-0.232455,1.43238
5,19,-0.245984,1.45488
6,19,-0.259513,1.4777
7,19,-0.276416,1.50085
8,19,-0.293012,1.52432
9,19,-0.308323,1.54811
10,19,-0.323135,1.57222
11,19,-0.337178,1.59665
12,19,-0.349723,1.62138
13,19,-0.360326,1.64642
14,19,-0.368731,1.67177
15,19,-0.374769,1.69742
16,19,-0.378351,1.72337
17,19,-0.37947,1.7496
18,19,-0.378203,1.77612
19,19,-0.374705,1.80292
20,19,-0.369183,1.83
21,19,-0.361885,1.85734
22,19,-0.353077,1.88494
23,19,-0.34303,1.91279
24,19,-0.332008,1.94089
25,19,-0.320259,1.96923
26,19,-0.308008,1.99779
27,19,-0.295456,2.02657
28,19,-0.282777,2.05557
29,19,-0.270121,2.08476
30,19,-0.257614,2.11414
31,19,-0.245363,2.14369
32,19,-0.233455,2.17342
33,19,-0.221966,2.20329
34,19,-0.210957,2.23331
35,19,-0.200483,2.26346
36,19,-0.19059,2.29373
37,19,-0.181322,2.32409
38,19,-0.172719,2.35455
39,19,-0.164819,2.38507
40,19,-0.157662,2.41566
41,19,-0.151285,2.44629
42,19,-0.145731,2.47694
43,19,-0.141043,2.50761
44,19,-0.137264,2.53827
45,19,-0.134444,2.5689
46,19,-0.132632,2.5995
47,19,-0.131882,2.63004
48,19,-0.132251,2.6605
49,19,-0.133797,2.69087
50,19,-0.13658,2.72112
51,19,-0.140664,2.75124
52,19,-0.146113,2.7812
53,19,-0.152993,2.811
54,19,-0.161368,2.8406
55,19,-0.171305,2.86999
56,19,-0.182866,2.89915
57,19,-0.196113,2.92806
58,19,-0.211104,2.95669
59,19,-0.227892,2.98503
60,19,-0.246527,3.01306
61,19,-0.267048,3.04075
62,19,-0.28949,3.06808
63,19,-0.31388,3.09504
1,20,-0.236156,1.38836
2,20,-0.253985,1.41022
3,20,-0.27,1.43241
4,20,-0.285308,1.45493
5,20,-0.30037,1.47779
6,20,-0.3155,1.50097
7,20,-0.331433,1.52449
8,20,-0.347219,1.54833
9,20,-0.362292,1.57249
10,20,-0.376605,1.59698
11,20,-0.389936,1.62179
12,20,-0.401904,1.64691
13,20,-0.412192,1.67235
14,20,-0.420574,1.6981
15,20,-0.426901,1.72415
16,20,-0.431095,1.7505
17,20,-0.433145,1.77715
18,20,-0.433106,1.80409
19,20,-0.431093,1.83131
20,20,-0.427267,1.85881
21,20,-0.421821,1.88659
22,20,-0.41497,1.91462
23,20,-0.406936,1.94291
24,20,-0.397941,1.97146
25,20,-0.388196,2.00024
26,20,-0.3779,2.02925
27,20,-0.367233,2.05849
28,20,-0.356355,2.08794
29,20,-0.345408,2.11759
30,20,-0.334514,2.14743
31,20,-0.32378,2.17745
32,20,-0.313299,2.20764
33,20,-0.303148,2.23799
34,20,-0.293396,2.26848
35,20,-0.284105,2.29911
36,20,-0.275329,2.32985
37,20,-0.267117,2.36069
38,20,-0.259517,2.39163
39,20,-0.252575,2.42263
40,20,-0.246335,2.4537
41,20,-0.240841,2.48481
42,20,-0.236141,2.51595
43,20,-0.23228,2.5471
44,20,-0.229309,2.57824
45,20,-0.227279,2.60936
46,20,-0.226242,2.64044
47,20,-0.226255,2.67146
48,20,-0.227375,2.7024
49,20,-0.229662,2.73324
50,20,-0.233178,2.76397
51,20,-0.237984,2.79456
52,20,-0.244145,2.825
53,20,-0.251725,2.85527
54,20,-0.260788,2.88533
55,20,-0.271396,2.91519
56,20,-0.28361,2.94481
57,20,-0.29749,2.97417
58,20,-0.313091,3.00325
59,20,-0.330462,3.03204
60,20,-0.349649,3.06051
61,20,-0.370691,3.08864
62,20,-0.39362,3.1164
63,20,-0.41846,3.14378
1,21,-0.28362,1.41023
2,21,-0.303052,1.43243
3,21,-0.320876,1.45497
4,21,-0.33772,1.47784
5,21,-0.353997,1.50106
6,21,-0.369988,1.52461
7,21,-0.385897,1.54849
8,21,-0.401437,1.57271
9,21,-0.416313,1.59726
10,21,-0.430348,1.62213
11,21,-0.443343,1.64733
12,21,-0.455052,1.67285
13,21,-0.465247,1.69869
14,21,-0.473751,1.72484
15,21,-0.480445,1.7513
16,21,-0.485259,1.77807
17,21,-0.488184,1.80514
18,21,-0.489259,1.8325
19,21,-0.488571,1.86015
20,21,-0.486245,1.88809
21,21,-0.482438,1.91629
22,21,-0.477321,1.94477
23,21,-0.47108,1.97351
24,21,-0.463901,2.0025
25,21,-0.455965,2.03174
26,21,-0.447446,2.06121
27,21,-0.438506,2.0909
28,21,-0.42929,2.12082
29,21,-0.419932,2.15093
30,21,-0.410549,2.18125
31,21,-0.401246,2.21174
32,21,-0.392116,2.24241
33,21,-0.383239,2.27323
34,21,-0.37469,2.30421
35,21,-0.366534,2.33531
36,21,-0.35883,2.36654
37,21,-0.351634,2.39787
38,21,-0.345,2.42929
39,21,-0.338978,2.46078
40,21,-0.333618,2.49234
41,21,-0.32897,2.52394
42,21,-0.325085,2.55557
43,21,-0.322013,2.58721
44,21,-0.319808,2.61884
45,21,-0.318524,2.65045
46,21,-0.318218,2.68202
47,21,-0.318947,2.71352
48,21,-0.32077,2.74495
49,21,-0.323748,2.77628
50,21,-0.327945,2.80749
51,21,-0.333422,2.83857
52,21,-0.340243,2.86949
53,21,-0.348472,2.90023
54,21,-0.358172,2.93077
55,21,-0.369404,2.9611
56,21,-0.382228,2.99118
57,21,-0.396699,3.02101
58,21,-0.412872,3.05055
59,21,-0.430794,3.07979
60,21,-0.450509,3.1087
61,21,-0.472054,3.13727
62,21,-0.495459,3.16548
63,21,-0.520749,3.19329
1,22,-0.332663,1.43243
2,22,-0.35304,1.45498
3,22,-0.372039,1.47788
4,22,-0.390002,1.50112
5,22,-0.407209,1.5247
6,22,-0.423852,1.54862
7,22,-0.440019,1.57288
8,22,-0.455606,1.59748
9,22,-0.470455,1.62241
10,22,-0.484412,1.64767
11,22,-0.497314,1.67327
12,22,-0.508985,1.69919
13,22,-0.519262,1.72544
14,22,-0.52801,1.752
15,22,-0.535134,1.77888
16,22,-0.54058,1.80607
17,22,-0.544337,1.83357
18,22,-0.546438,1.86136
19,22,-0.546948,1.88945
20,22,-0.54597,1.91782
21,22,-0.543627,1.94647
22,22,-0.540062,1.9754
23,22,-0.535428,2.00459
24,22,-0.529884,2.03404
25,22,-0.523586,2.06373
26,22,-0.516685,2.09367
27,22,-0.509327,2.12383
28,22,-0.501644,2.15421
29,22,-0.493761,2.18481
30,22,-0.485788,2.2156
31,22,-0.477828,2.24657
32,22,-0.469972,2.27772
33,22,-0.462302,2.30903
34,22,-0.454896,2.34049
35,22,-0.44782,2.37209
36,22,-0.44114,2.4038
37,22,-0.434915,2.43563
38,22,-0.429202,2.46754
39,22,-0.424058,2.49954
40,22,-0.419537,2.53159
41,22,-0.415693,2.56369
42,22,-0.41258,2.59581
43,22,-0.410254,2.62795
44,22,-0.40877,2.66008
45,22,-0.408188,2.69219
46,22,-0.408564,2.72425
47,22,-0.40996,2.75626
48,22,-0.412436,2.78818
49,22,-0.416056,2.82
50,22,-0.420882,2.85171
51,22,-0.426979,2.88327
52,22,-0.43441,2.91468
53,22,-0.443239,2.9459
54,22,-0.453528,2.97692
55,22,-0.465337,3.00773
56,22,-0.478727,3.03829
57,22,-0.493751,3.06858
58,22,-0.510462,3.09859
59,22,-0.528906,3.12829
60,22,-0.549126,3.15766
61,22,-0.571158,3.18668
62,22,-0.595031,3.21533
63,22,-0.620769,3.24358
1,23,-0.382669,1.45499
2,23,-0.403708,1.4779
3,23,-0.423533,1.50115
4,23,-0.44233,1.52476
5,23,-0.460271,1.54871
6,23,-0.477477,1.573
7,23,-0.493997,1.59765
8,23,-0.509789,1.62263
9,23,-0.524761,1.64796
10,23,-0.538799,1.67362
11,23,-0.55178,1.69962
12,23,-0.563576,1.72595
13,23,-0.574066,1.75261
14,23,-0.58315,1.77959
15,23,-0.590756,1.8069
16,23,-0.596843,1.83451
17,23,-0.601402,1.86244
18,23,-0.604458,1.89067
19,23,-0.606067,1.9192
20,23,-0.60631,1.94802
21,23,-0.60529,1.97712
22,23,-0.603124,2.00651
23,23,-0.599941,2.03616
24,23,-0.595876,2.06607
25,23,-0.591066,2.09623
26,23,-0.585642,2.12664
27,23,-0.579735,2.15728
28,23,-0.573465,2.18814
29,23,-0.566947,2.21921
30,23,-0.560287,2.25049
31,23,-0.553583,2.28195
32,23,-0.546923,2.31359
33,23,-0.540391,2.34539
34,23,-0.534063,2.37735
35,23,-0.528011,2.40944
36,23,-0.5223,2.44166
37,23,-0.516995,2.47398
38,23,-0.512157,2.5064
39,23,-0.507844,2.5389
40,23,-0.504116,2.57146
41,23,-0.501029,2.60406
42,23,-0.498643,2.63669
43,23,-0.497016,2.66934
44,23,-0.496207,2.70197
45,23,-0.496277,2.73458
46,23,-0.497287,2.76715
47,23,-0.4993,2.79966
48,23,-0.502378,2.83209
49,23,-0.506588,2.86441
50,23,-0.511993,2.89661
51,23,-0.518658,2.92868
52,23,-0.526648,2.96058
53,23,-0.536027,2.99229
54,23,-0.546857,3.0238
55,23,-0.5592,3.05509
56,23,-0.573114,3.08613
57,23,-0.588653,3.1169
58,23,-0.605869,3.14738
59,23,-0.624808,3.17755
60,23,-0.645512,3.20739
61,23,-0.668016,3.23686
62,23,-0.692349,3.26596
63,23,-0.718535,3.29465
1,24,-0.433313,1.4779
2,24,-0.45488,1.50117
3,24,-0.47534,1.52479
4,24,-0.494795,1.54877
5,24,-0.513343,1.5731
6,24,-0.531059,1.59778
7,24,-0.54797,1.62281
8,24,-0.564057,1.64819
9,24,-0.579259,1.67391
10,24,-0.593499,1.69998
11,24,-0.606684,1.72639
12,24,-0.618722,1.75313
13,24,-0.629524,1.78021
14,24,-0.639015,1.80762
15,24,-0.647142,1.83535
16,24,-0.653875,1.8634
17,24,-0.65921,1.89177
18,24,-0.663167,1.92044
19,24,-0.665793,1.94942
20,24,-0.667155,1.9787
21,24,-0.667338,2.00826
22,24,-0.666443,2.0381
23,24,-0.664578,2.06822
24,24,-0.661859,2.0986
25,24,-0.658404,2.12924
26,24,-0.654331,2.16013
27,24,-0.649755,2.19125
28,24,-0.644788,2.2226
29,24,-0.639534,2.25416
30,24,-0.634093,2.28593
31,24,-0.628558,2.31789
32,24,-0.623018,2.35002
33,24,-0.617552,2.38233
34,24,-0.612238,2.41479
35,24,-0.607148,2.44739
36,24,-0.60235,2.48011
37,24,-0.597912,2.51294
38,24,-0.593896,2.54587
39,24,-0.590364,2.57888
40,24,-0.587379,2.61195
41,24,-0.585002,2.64507
42,24,-0.583293,2.67821
43,24,-0.582315,2.71137
44,24,-0.58213,2.74452
45,24,-0.582802,2.77765
46,24,-0.584393,2.81073
47,24,-0.586971,2.84375
48,24,-0.5906,2.87669
49,24,-0.595346,2.90952
50,24,-0.601277,2.94223
51,24,-0.608458,2.9748
52,24,-0.616957,3.0072
53,24,-0.626837,3.03941
54,24,-0.638162,3.07142
55,24,-0.650994,3.1032
56,24,-0.665391,3.13473
57,24,-0.681408,3.16599
58,24,-0.699097,3.19695
59,24,-0.718505,3.22759
60,24,-0.739672,3.25789
61,24,-0.762633,3.28783
62,24,-0.787419,3.31739
63,24,-0.814052,3.34654
1,25,-0.484409,1.50118
2,25,-0.506436,1.52481
3,25,-0.527427,1.5488
4,25,-0.547434,1.57316
5,25,-0.566513,1.59787
6,25,-0.584704,1.62294
7,25,-0.602025,1.64836
8,25,-0.618459,1.67414
9,25,-0.633969,1.70027
10,25,-0.648497,1.72675
11,25,-0.661978,1.75357
12,25,-0.674343,1.78074
13,25,-0.685528,1.80824
14,25,-0.695478,1.83608
15,25,-0.704155,1.86425
16,25,-0.711537,1.89275
17,25,-0.717624,1.92156
18,25,-0.722435,1.95069
19,25,-0.72601,1.98012
20,25,-0.728406,2.00986
21,25,-0.729694,2.03989
22,25,-0.729961,2.0702
23,25,-0.729299,2.10079
24,25,-0.727808,2.13165
25,25,-0.725593,2.16277
26,25,-0.722758,2.19414
27,25,-0.719406,2.22576
28,25,-0.715639,2.2576
29,25,-0.711553,2.28966
30,25,-0.707242,2.32192
31,25,-0.702795,2.35439
32,25,-0.698296,2.38703
33,25,-0.693826,2.41985
34,25,-0.689459,2.45282
35,25,-0.685269,2.48593
36,25,-0.681326,2.51917
37,25,-0.677697,2.55252
38,25,-0.674449,2.58596
39,25,-0.671645,2.61949
40,25,-0.669351,2.65308
41,25,-0.66763,2.68672
42,25,-0.666547,2.72039
43,25,-0.666165,2.75407
44,25,-0.666552,2.78774
45,25,-0.667771,2.82139
46,25,-0.669892,2.85499
47,25,-0.67298,2.88853
48,25,-0.677104,2.92199
49,25,-0.682333,2.95534
50,25,-0.688736,2.98856
51,25,-0.696381,3.02164
52,25,-0.705335,3.05455
53,25,-0.715666,3.08728
54,25,-0.727439,3.11979
55,25,-0.740715,3.15207
56,25,-0.755555,3.1841
57,25,-0.772014,3.21584
58,25,-0.790145,3.24729
59,25,-0.809994,3.27842
60,25,-0.831604,3.3092
61,25,-0.855009,3.33961
62,25,-0.88024,3.36963
63,25,-0.90732,3.39924
1,26,-0.535843,1.52482
2,26,-0.558297,1.54882
3,26,-0.57976,1.57319
4,26,-0.600259,1.59793
5,26,-0.619822,1.62303
6,26,-0.638469,1.64849
7,26,-0.656208,1.67432
8,26,-0.673027,1.7005
9,26,-0.688896,1.72705
10,26,-0.703775,1.75394
11,26,-0.717617,1.78119
12,26,-0.730371,1.80878
13,26,-0.741991,1.83672
14,26,-0.752437,1.865
15,26,-0.761682,1.89361
16,26,-0.769712,1.92255
17,26,-0.776531,1.95182
18,26,-0.782156,1.98141
19,26,-0.786622,2.0113
20,26,-0.789979,2.04151
21,26,-0.792289,2.07201
22,26,-0.793624,2.1028
23,26,-0.794066,2.13387
24,26,-0.793702,2.16522
25,26,-0.792625,2.19683
26,26,-0.790926,2.2287
27,26,-0.7887,2.26081
28,26,-0.786038,2.29315
29,26,-0.783031,2.32571
30,26,-0.779765,2.35849
31,26,-0.776327,2.39146
32,26,-0.772795,2.42462
33,26,-0.769249,2.45795
34,26,-0.765763,2.49144
35,26,-0.76241,2.52507
36,26,-0.759261,2.55884
37,26,-0.756383,2.59271
38,26,-0.753845,2.62669
39,26,-0.751713,2.66074
40,26,-0.750055,2.69486
41,26,-0.748936,2.72903
42,26,-0.748422,2.76323
43,26,-0.748583,2.79744
44,26,-0.749484,2.83164
45,26,-0.751197,2.86582
46,26,-0.753789,2.89995
47,26,-0.757331,2.93402
48,26,-0.761894,2.968
49,26,-0.76755,3.00188
50,26,-0.774369,3.03563
51,26,-0.782423,3.06923
52,26,-0.791781,3.10266
53,26,-0.802512,3.1359
54,26,-0.814683,3.16892
55,26,-0.828358,3.20171
56,26,-0.843599,3.23424
57,26,-0.860463,3.26649
58,26,-0.879003,3.29843
59,26,-0.899268,3.33005
60,26,-0.9213,3.36131
61,26,-0.945135,3.3922
62,26,-0.970805,3.4227
63,26,-0.998331,3.45277
1,27,-0.587539,1.54883
2,27,-0.610404,1.57321
3,27,-0.632309,1.59797
4,27,-0.653266,1.62309
5,27,-0.673286,1.64859
6,27,-0.692379,1.67445
7,27,-0.710545,1.70069
8,27,-0.727771,1.72728
9,27,-0.744037,1.75424
10,27,-0.759312,1.78156
11,27,-0.773561,1.80924
12,27,-0.786748,1.83727
13,27,-0.798839,1.86564
14,27,-0.809806,1.89437
15,27,-0.819631,1.92343
16,27,-0.828306,1.95283
17,27,-0.835837,1.98256
18,27,-0.84224,2.01261
19,27,-0.847548,2.04298
20,27,-0.851804,2.07366
21,27,-0.855061,2.10464
22,27,-0.857384,2.13591
23,27,-0.858844,2.16748
24,27,-0.859518,2.19932
25,27,-0.859487,2.23143
26,27,-0.858834,2.26379
27,27,-0.857644,2.29641
28,27,-0.856001,2.32926
29,27,-0.853988,2.36234
30,27,-0.851689,2.39563
31,27,-0.849181,2.42912
32,27,-0.846544,2.4628
33,27,-0.843853,2.49666
34,27,-0.841182,2.53068
35,27,-0.838602,2.56484
36,27,-0.836184,2.59913
37,27,-0.833998,2.63354
38,27,-0.832112,2.66805
39,27,-0.830594,2.70264
40,27,-0.829514,2.7373
41,27,-0.828939,2.77201
42,27,-0.828938,2.80674
43,27,-0.829582,2.84149
44,27,-0.830942,2.87623
45,27,-0.833088,2.91095
46,27,-0.836093,2.94562
47,27,-0.84003,2.98022
48,27,-0.844974,3.01474
49,27,-0.850997,3.04915
50,27,-0.858175,3.08343
51,27,-0.866581,3.11756
52,27,-0.876287,3.15152
53,27,-0.887365,3.18528
54,27,-0.899885,3.21882
55,27,-0.913913,3.25213
56,27,-0.929512,3.28517
57,27,-0.946743,3.31793
58,27,-0.96566,3.35037
59,27,-0.986313,3.38249
60,27,-1.00875,3.41424
61,27,-1.033,3.44562
62,27,-1.0591,3.4766
63,27,-1.08707,3.50714
1,28,-0.639446,1.57322
2,28,-0.662714,1.59799
3,28,-0.685046,1.62313
4,28,-0.706443,1.64865
5,28,-0.726907,1.67455
6,28,-0.746441,1.70082
7,28,-0.76504,1.72747
8,28,-0.782692,1.75448
9,28,-0.799381,1.78187
10,28,-0.815083,1.80962
11,28,-0.829772,1.83773
12,28,-0.843422,1.8662
13,28,-0.85601,1.89502
14,28,-0.867515,1.9242
15,28,-0.877925,1.95372
16,28,-0.887238,1.98358
17,28,-0.895461,2.01378
18,28,-0.902611,2.0443
19,28,-0.908717,2.07515
20,28,-0.913817,2.10631
21,28,-0.91796,2.13778
22,28,-0.9212,2.16955
23,28,-0.923602,2.20161
24,28,-0.925234,2.23395
25,28,-0.926167,2.26657
26,28,-0.926478,2.29944
27,28,-0.926242,2.33257
28,28,-0.925538,2.36594
29,28,-0.924443,2.39954
30,28,-0.923033,2.43336
31,28,-0.921385,2.46738
32,28,-0.919572,2.50159
33,28,-0.917668,2.53598
34,28,-0.915745,2.57053
35,28,-0.913874,2.60523
36,28,-0.912126,2.64006
37,28,-0.91057,2.67501
38,28,-0.909275,2.71007
39,28,-0.908312,2.7452
40,28,-0.90775,2.78041
41,28,-0.90766,2.81566
42,28,-0.908112,2.85094
43,28,-0.90918,2.88624
44,28,-0.910936,2.92153
45,28,-0.913455,2.95679
46,28,-0.916811,2.99201
47,28,-0.921082,3.02716
48,28,-0.926345,3.06222
49,28,-0.932675,3.09717
50,28,-0.940151,3.13199
51,28,-0.94885,3.16665
52,28,-0.958847,3.20115
53,28,-0.970217,3.23544
54,28,-0.983033,3.26951
55,28,-0.997365,3.30334
56,28,-1.01328,3.3369
57,28,-1.03084,3.37018
58,28,-1.05009,3.40313
59,28,-1.07111,3.43575
60,28,-1.09392,3.46801
61,28,-1.11857,3.49988
62,28,-1.1451,3.53134
63,28,-1.17351,3.56237
1,29,-0.691524,1.59799
2,29,-0.715194,1.62315
3,29,-0.737945,1.64869
4,29,-0.759773,1.67462
5,29,-0.780676,1.70092
6,29,-0.80065,1.72761
7,29,-0.819688,1.75467
8,29,-0.83778,1.78211
9,29,-0.85491,1.80993
10,29,-0.871062,1.83811
11,29,-0.886215,1.86667
12,29,-0.90035,1.89559
13,29,-0.91345,1.92487
14,29,-0.925502,1.9545
15,29,-0.936499,1.98449
16,29,-0.946442,2.01482
17,29,-0.955338,2.04549
18,29,-0.963205,2.0765
19,29,-0.97007,2.10783
20,29,-0.975967,2.13948
21,29,-0.980938,2.17145
22,29,-0.985034,2.20372
23,29,-0.988311,2.23628
24,29,-0.990829,2.26913
25,29,-0.992655,2.30226
26,29,-0.993855,2.33565
27,29,-0.994499,2.36931
28,29,-0.99466,2.4032
29,29,-0.994409,2.43733
30,29,-0.993818,2.47168
31,29,-0.992958,2.50623
32,29,-0.991902,2.54098
33,29,-0.990719,2.57591
34,29,-0.98948,2.61101
35,29,-0.988255,2.64626
36,29,-0.987114,2.68164
37,29,-0.986126,2.71714
38,29,-0.985362,2.75274
39,29,-0.984892,2.78843
40,29,-0.984787,2.82419
41,29,-0.985119,2.86
42,29,-0.985963,2.89584
43,29,-0.987391,2.93169
44,29,-0.989481,2.96754
45,29,-0.992308,3.00335
46,29,-0.995953,3.03912
47,29,-1.00049,3.07483
48,29,-1.00601,3.11044
49,29,-1.01258,3.14594
50,29,-1.02029,3.18131
51,29,-1.02922,3.21652
52,29,-1.03945,3.25156
53,29,-1.05105,3.28639
54,29,-1.06411,3.321
55,29,-1.0787,3.35536
56,29,-1.09488,3.38945
57,29,-1.11272,3.42325
58,29,-1.13228,3.45673
59,29,-1.15363,3.48986
60,29,-1.1768,3.52262
61,29,-1.20183,3.555
62,29,-1.22877,3.58695
63,29,-1.25763,3.61847
1,30,-0.743738,1.62316
2,30,-0.767812,1.64871
3,30,-0.790981,1.67466
4,30,-0.813238,1.70099
5,30,-0.834579,1.72771
6,30,-0.854995,1.75481
7,30,-0.874479,1.7823
8,30,-0.89302,1.81018
9,30,-0.910606,1.83843
10,30,-0.927223,1.86706
11,30,-0.942855,1.89606
12,30,-0.957489,1.92544
13,30,-0.971112,1.95518
14,30,-0.983716,1.98528
15,30,-0.995298,2.01574
16,30,-1.00586,2.04655
17,30,-1.01541,2.0777
18,30,-1.02397,2.1092
19,30,-1.03156,2.14102
20,30,-1.03821,2.17317
21,30,-1.04396,2.20564
22,30,-1.04885,2.23842
23,30,-1.05295,2.2715
24,30,-1.05629,2.30487
25,30,-1.05894,2.33852
26,30,-1.06096,2.37244
27,30,-1.06242,2.40662
28,30,-1.06337,2.44105
29,30,-1.0639,2.47571
30,30,-1.06406,2.5106
31,30,-1.06392,2.5457
32,30,-1.06356,2.581
33,30,-1.06303,2.61648
34,30,-1.06241,2.65213
35,30,-1.06177,2.68793
36,30,-1.06117,2.72387
37,30,-1.06069,2.75993
38,30,-1.0604,2.79609
39,30,-1.06036,2.83235
40,30,-1.06065,2.86867
41,30,-1.06134,2.90504
42,30,-1.06251,2.94144
43,30,-1.06423,2.97786
44,30,-1.06659,3.01427
45,30,-1.06966,3.05065
46,30,-1.07352,3.08698
47,30,-1.07827,3.12325
48,30,-1.08397,3.15942
49,30,-1.09072,3.19548
50,30,-1.09859,3.23141
51,30,-1.10769,3.26717
52,30,-1.11808,3.30276
53,30,-1.12986,3.33814
54,30,-1.1431,3.3733
55,30,-1.15788,3.4082
56,30,-1.17428,3.44283
57,30,-1.19236,3.47716
58,30,-1.21219,3.51116
59,30,-1.23383,3.54482
60,30,-1.25733,3.5781
61,30,-1.28274,3.61098
62,30,-1.31008,3.64344
63,30,-1.33939,3.67545
1,31,-0.796062,1.64872
2,31,-0.820542,1.67468
3,31,-0.844131,1.70103
4,31,-0.866818,1.72777
5,31,-0.888597,1.75492
6,31,-0.909458,1.78245
7,31,-0.929394,1.81037
8,31,-0.948393,1.83868
9,31,-0.966445,1.86738
10,31,-0.983538,1.89646
11,31,-0.999661,1.92592
12,31,-1.0148,1.95576
13,31,-1.02895,1.98597
14,31,-1.04211,2.01654
15,31,-1.05427,2.04748
16,31,-1.06544,2.07878
17,31,-1.07563,2.11042
18,31,-1.08485,2.14241
19,31,-1.09313,2.17474
20,31,-1.1005,2.2074
21,31,-1.10698,2.24038
22,31,-1.11263,2.27367
23,31,-1.11748,2.30727
24,31,-1.12159,2.34116
25,31,-1.12501,2.37534
26,31,-1.12779,2.4098
27,31,-1.13,2.44452
28,31,-1.13169,2.47949
29,31,-1.13293,2.5147
30,31,-1.13377,2.55014
31,31,-1.1343,2.58579
32,31,-1.13456,2.62164
33,31,-1.13463,2.65768
34,31,-1.13457,2.69389
35,31,-1.13445,2.73026
36,31,-1.13433,2.76676
37,31,-1.1343,2.80339
38,31,-1.13441,2.84013
39,31,-1.13473,2.87695
40,31,-1.13535,2.91384
41,31,-1.13634,2.95079
42,31,-1.13777,2.98776
43,31,-1.13972,3.02475
44,31,-1.14228,3.06174
45,31,-1.14552,3.09869
46,31,-1.14953,3.1356
47,31,-1.15441,3.17243
48,31,-1.16022,3.20917
49,31,-1.16707,3.2458
50,31,-1.17505,3.28229
51,31,-1.18424,3.31862
52,31,-1.19473,3.35477
53,31,-1.20661,3.39071
54,31,-1.21998,3.42642
55,31,-1.2349,3.46187
56,31,-1.25146,3.49705
57,31,-1.26973,3.53191
58,31,-1.28979,3.56645
59,31,-1.31169,3.60064
60,31,-1.33549,3.63444
61,31,-1.36125,3.66784
62,31,-1.38898,3.70082
63,31,-1.41874,3.73333
1,32,-0.848469,1.67468
2,32,-0.87336,1.70105
3,32,-0.897371,1.72782
4,32,-0.920491,1.75498
5,32,-0.942712,1.78255
6,32,-0.964022,1.81052
7,32,-0.984415,1.83888
8,32,-1.00388,1.86764
9,32,-1.0224,1.89679
10,32,-1.03998,1.92633
11,32,-1.0566,1.95625
12,32,-1.07226,1.98656
13,32,-1.08694,2.01724
14,32,-1.10065,2.0483
15,32,-1.11338,2.07972
16,32,-1.12515,2.11151
17,32,-1.13596,2.14366
18,32,-1.14582,2.17615
19,32,-1.15476,2.20899
20,32,-1.16281,2.24216
21,32,-1.16999,2.27566
22,32,-1.17634,2.30947
23,32,-1.18191,2.3436
24,32,-1.18673,2.37803
25,32,-1.19086,2.41275
26,32,-1.19435,2.44775
27,32,-1.19725,2.48301
28,32,-1.19961,2.51853
29,32,-1.2015,2.5543
30,32,-1.20298,2.59029
31,32,-1.2041,2.62651
32,32,-1.20493,2.66293
33,32,-1.20553,2.69953
34,32,-1.20597,2.73631
35,32,-1.20631,2.77325
36,32,-1.20662,2.81033
37,32,-1.20696,2.84754
38,32,-1.20741,2.88485
39,32,-1.20804,2.92225
40,32,-1.20893,2.95973
41,32,-1.21014,2.99725
42,32,-1.21176,3.03481
43,32,-1.21388,3.07239
44,32,-1.21656,3.10995
45,32,-1.2199,3.14749
46,32,-1.22399,3.18497
47,32,-1.22892,3.22239
48,32,-1.23477,3.25971
49,32,-1.24165,3.29692
50,32,-1.24965,3.33398
51,32,-1.25886,3.37089
52,32,-1.26938,3.4076
53,32,-1.2813,3.44411
54,32,-1.29471,3.48038
55,32,-1.30971,3.51639
56,32,-1.32637,3.55212
57,32,-1.34478,3.58753
58,32,-1.36502,3.62262
59,32,-1.38715,3.65734
60,32,-1.41122,3.69168
61,32,-1.4373,3.72561
62,32,-1.46542,3.7591
63,32,-1.49562,3.79212
1,33,-0.900934,1.70106
2,33,-0.926242,1.72784
3,33,-0.95068,1.75502
4,33,-0.974236,1.78262
5,33,-0.996902,1.81062
6,33,-1.01867,1.83903
7,33,-1.03952,1.86784
8,33,-1.05945,1.89705
9,33,-1.07846,1.92666
10,33,-1.09653,1.95666
11,33,-1.11365,1.98706
12,33,-1.12982,2.01784
13,33,-1.14503,2.04901
14,33,-1.15929,2.08055
15,33,-1.17259,2.11247
16,33,-1.18494,2.14476
17,33,-1.19635,2.17741
18,33,-1.20684,2.21042
19,33,-1.21641,2.24377
20,33,-1.22511,2.27747
21,33,-1.23295,2.31149
22,33,-1.23997,2.34584
23,33,-1.2462,2.38051
24,33,-1.2517,2.41548
25,33,-1.25649,2.45074
26,33,-1.26063,2.48629
27,33,-1.26416,2.52211
28,33,-1.26715,2.55819
29,33,-1.26964,2.59452
30,33,-1.27169,2.63109
31,33,-1.27335,2.66787
32,33,-1.27469,2.70486
33,33,-1.27577,2.74204
34,33,-1.27665,2.7794
35,33,-1.27739,2.81692
36,33,-1.27805,2.85459
37,33,-1.27872,2.89238
38,33,-1.27945,2.93028
39,33,-1.28032,2.96827
40,33,-1.2814,3.00634
41,33,-1.28277,3.04445
42,33,-1.28452,3.08261
43,33,-1.28672,3.12077
44,33,-1.28945,3.15893
45,33,-1.29282,3.19705
46,33,-1.29691,3.23513
47,33,-1.30181,3.27314
48,33,-1.30762,3.31104
49,33,-1.31445,3.34884
50,33,-1.32239,3.38649
51,33,-1.33154,3.42397
52,33,-1.342,3.46126
53,33,-1.35388,3.49834
54,33,-1.36727,3.53519
55,33,-1.38227,3.57176
56,33,-1.39898,3.60805
57,33,-1.41747,3.64403
58,33,-1.43784,3.67966
59,33,-1.46014,3.71493
60,33,-1.48446,3.74981
61,33,-1.51084,3.78427
62,33,-1.53933,3.81829
63,33,-1.56997,3.85184
1,34,-0.953433,1.72784
2,34,-0.979164,1.75505
3,34,-1.00403,1.78266
4,34,-1.02803,1.81069
5,34,-1.05115,1.83914
6,34,-1.07337,1.86799
7,34,-1.09469,1.89725
8,34,-1.1151,1.92692
9,34,-1.13459,1.957
10,34,-1.15315,1.98748
11,34,-1.17077,2.01835
12,34,-1.18746,2.04962
13,34,-1.20321,2.08128
14,34,-1.21801,2.11332
15,34,-1.23186,2.14574
16,34,-1.24479,2.17854
17,34,-1.25679,2.2117
18,34,-1.26787,2.24523
19,34,-1.27806,2.27911
20,34,-1.28737,2.31333
21,34,-1.29584,2.34789
22,34,-1.30349,2.38279
23,34,-1.31036,2.418
24,34,-1.31647,2.45352
25,34,-1.32188,2.48934
26,34,-1.32663,2.52545
27,34,-1.33075,2.56183
28,34,-1.33431,2.59848
29,34,-1.33735,2.63538
30,34,-1.33991,2.67252
31,34,-1.34207,2.70988
32,34,-1.34386,2.74746
33,34,-1.34536,2.78523
34,34,-1.34662,2.82317
35,34,-1.3477,2.86128
36,34,-1.34867,2.89954
37,34,-1.34959,2.93793
38,34,-1.35054,2.97643
39,34,-1.35158,3.01502
40,34,-1.35279,3.05368
41,34,-1.35426,3.0924
42,34,-1.35605,3.13115
43,34,-1.35826,3.16991
44,34,-1.36097,3.20867
45,34,-1.36429,3.2474
46,34,-1.36829,3.28608
47,34,-1.37308,3.32468
48,34,-1.37877,3.36319
49,34,-1.38546,3.40157
50,34,-1.39325,3.43981
51,34,-1.40225,3.47789
52,34,-1.41258,3.51577
53,34,-1.42433,3.55343
54,34,-1.43762,3.59086
55,34,-1.45255,3.62801
56,34,-1.46923,3.66487
57,34,-1.48774,3.70141
58,34,-1.50818,3.73761
59,34,-1.53062,3.77344
60,34,-1.55514,3.80886
61,34,-1.5818,3.84387
62,34,-1.61064,3.87842
63,34,-1.64171,3.9125
1,35,-1.00594,1.75505
2,35,-1.0321,1.78268
3,35,-1.05741,1.81073
4,35,-1.08185,1.83921
5,35,-1.10542,1.8681
6,35,-1.12811,1.89741
7,35,-1.1499,1.92713
8,35,-1.17079,1.95727
9,35,-1.19076,1.98782
10,35,-1.20982,2.01877
11,35,-1.22795,2.05013
12,35,-1.24516,2.08189
13,35,-1.26143,2.11405
14,35,-1.27677,2.1466
15,35,-1.29118,2.17953
16,35,-1.30466,2.21284
17,35,-1.31723,2.24653
18,35,-1.3289,2.28058
19,35,-1.33967,2.315
20,35,-1.34958,2.34976
21,35,-1.35865,2.38487
22,35,-1.3669,2.42031
23,35,-1.37436,2.45607
24,35,-1.38106,2.49215
25,35,-1.38705,2.52854
26,35,-1.39236,2.56522
27,35,-1.39703,2.60217
28,35,-1.40111,2.6394
29,35,-1.40464,2.67688
30,35,-1.40768,2.71461
31,35,-1.41027,2.75256
32,35,-1.41247,2.79072
33,35,-1.41433,2.82909
34,35,-1.41592,2.86763
35,35,-1.41728,2.90634
36,35,-1.41849,2.9452
37,35,-1.41961,2.98419
38,35,-1.42071,3.0233
39,35,-1.42186,3.0625
40,35,-1.42314,3.10177
41,35,-1.42462,3.1411
42,35,-1.42639,3.18046
43,35,-1.42853,3.21983
44,35,-1.43114,3.2592
45,35,-1.43432,3.29854
46,35,-1.43815,3.33783
47,35,-1.44275,3.37704
48,35,-1.44822,3.41615
49,35,-1.45467,3.45514
50,35,-1.46223,3.49398
51,35,-1.47099,3.53266
52,35,-1.48108,3.57114
53,35,-1.49262,3.60939
54,35,-1.50572,3.6474
55,35,-1.5205,3.68514
56,35,-1.53707,3.72259
57,35,-1.55552,3.7597
58,35,-1.57597,3.79647
59,35,-1.59849,3.83286
60,35,-1.62317,3.86885
61,35,-1.65007,3.9044
62,35,-1.67925,3.9395
63,35,-1.71075,3.97411
1,36,-1.05845,1.78269
2,36,-1.08504,1.81076
3,36,-1.11079,1.83925
4,36,-1.13568,1.86817
5,36,-1.15971,1.89752
6,36,-1.18286,1.92729
7,36,-1.20513,1.95748
8,36,-1.2265,1.98809
9,36,-1.24696,2.01912
10,36,-1.26652,2.05056
11,36,-1.28516,2.08242
12,36,-1.30288,2.11468
13,36,-1.31968,2.14734
14,36,-1.33555,2.1804
15,36,-1.3505,2.21385
16,36,-1.36454,2.24769
17,36,-1.37767,2.28191
18,36,-1.3899,2.3165
19,36,-1.40124,2.35145
20,36,-1.41172,2.38676
21,36,-1.42136,2.42242
22,36,-1.43018,2.45842
23,36,-1.4382,2.49475
24,36,-1.44545,2.5314
25,36,-1.45198,2.56836
26,36,-1.45781,2.60561
27,36,-1.46299,2.64315
28,36,-1.46755,2.68096
29,36,-1.47154,2.71904
30,36,-1.475,2.75735
31,36,-1.47798,2.7959
32,36,-1.48053,2.83467
33,36,-1.48271,2.87364
34,36,-1.48457,2.91279
35,36,-1.48616,2.95211
36,36,-1.48756,2.99158
37,36,-1.48881,3.03119
38,36,-1.49,3.07091
39,36,-1.4912,3.11072
40,36,-1.49247,3.15061
41,36,-1.49389,3.19056
42,36,-1.49556,3.23054
43,36,-1.49756,3.27054
44,36,-1.49999,3.31053
45,36,-1.50293,3.35048
46,36,-1.50651,3.39039
47,36,-1.51082,3.43022
48,36,-1.51598,3.46995
49,36,-1.5221,3.50955
50,36,-1.52931,3.54901
51,36,-1.53773,3.58829
52,36,-1.54749,3.62737
53,36,-1.55871,3.66623
54,36,-1.57153,3.70484
55,36,-1.58606,3.74318
56,36,-1.60243,3.78121
57,36,-1.62075,3.81891
58,36,-1.64113,3.85626
59,36,-1.66368,3.89322
60,36,-1.68846,3.92977
61,36,-1.71558,3.96589
62,36,-1.74507,4.00154
63,36,-1.77699,4.0367
1,37,-1.11091,1.81076
2,37,-1.13794,1.83927
3,37,-1.16414,1.86821
4,37,-1.18949,1.89759
5,37,-1.21399,1.9274
6,37,-1.23761,1.95764
7,37,-1.26035,1.9883
8,37,-1.28221,2.0194
9,37,-1.30317,2.05092
10,37,-1.32323,2.08286
11,37,-1.34237,2.11521
12,37,-1.36061,2.14798
13,37,-1.37793,2.18116
14,37,-1.39433,2.21474
15,37,-1.40982,2.24872
16,37,-1.42439,2.28309
17,37,-1.43807,2.31784
18,37,-1.45085,2.35298
19,37,-1.46274,2.38848
20,37,-1.47378,2.42435
21,37,-1.48396,2.46057
22,37,-1.49332,2.49714
23,37,-1.50187,2.53404
24,37,-1.50965,2.57126
25,37,-1.51668,2.6088
26,37,-1.52301,2.64664
27,37,-1.52865,2.68477
28,37,-1.53365,2.72318
29,37,-1.53805,2.76185
30,37,-1.54189,2.80078
31,37,-1.54522,2.83993
32,37,-1.54808,2.87931
33,37,-1.55052,2.91889
34,37,-1.5526,2.95866
35,37,-1.55437,2.9986
36,37,-1.55589,3.03869
37,37,-1.55723,3.07892
38,37,-1.55845,3.11927
39,37,-1.55962,3.15971
40,37,-1.56081,3.20023
41,37,-1.56211,3.2408
42,37,-1.5636,3.28142
43,37,-1.56538,3.32204
44,37,-1.56753,3.36266
45,37,-1.57016,3.40325
46,37,-1.57338,3.44378
47,37,-1.5773,3.48423
48,37,-1.58204,3.52459
49,37,-1.58773,3.56482
50,37,-1.59449,3.60489
51,37,-1.60246,3.6448
52,37,-1.61177,3.6845
53,37,-1.62257,3.72397
54,37,-1.63499,3.76319
55,37,-1.64917,3.80212
56,37,-1.66524,3.84075
57,37,-1.68334,3.87905
58,37,-1.70358,3.91698
59,37,-1.72607,3.95453
60,37,-1.75092,3.99166
61,37,-1.7782,4.02834
62,37,-1.80798,4.06455
63,37,-1.84031,4.10026
1,38,-1.16332,1.83928
2,38,-1.1908,1.86824
3,38,-1.21746,1.89763
4,38,-1.24327,1.92747
5,38,-1.26823,1.95775
6,38,-1.29233,1.98846
7,38,-1.31555,2.01962
8,38,-1.3379,2.0512
9,38,-1.35936,2.08321
10,38,-1.37991,2.11566
11,38,-1.39957,2.14852
12,38,-1.41832,2.18181
13,38,-1.43616,2.21551
14,38,-1.45308,2.24962
15,38,-1.4691,2.28413
16,38,-1.48421,2.31904
17,38,-1.49842,2.35434
18,38,-1.51173,2.39003
19,38,-1.52417,2.4261
20,38,-1.53573,2.46253
21,38,-1.54644,2.49932
22,38,-1.55632,2.53646
23,38,-1.56538,2.57394
24,38,-1.57365,2.61176
25,38,-1.58116,2.64989
26,38,-1.58794,2.68832
27,38,-1.59401,2.72705
28,38,-1.59942,2.76607
29,38,-1.60419,2.80535
30,38,-1.60838,2.84488
31,38,-1.61201,2.88466
32,38,-1.61513,2.92465
33,38,-1.61779,2.96486
34,38,-1.62005,3.00525
35,38,-1.62194,3.04582
36,38,-1.62354,3.08655
37,38,-1.6249,3.12741
38,38,-1.62608,3.16839
39,38,-1.62716,3.20947
40,38,-1.62821,3.25062
41,38,-1.62931,3.29184
42,38,-1.63055,3.33309
43,38,-1.63201,3.37436
44,38,-1.6338,3.41561
45,38,-1.63602,3.45684
46,38,-1.63879,3.49801
47,38,-1.64221,3.5391
48,38,-1.64643,3.58009
49,38,-1.65156,3.62095
50,38,-1.65775,3.66166
51,38,-1.66515,3.70219
52,38,-1.6739,3.74252
53,38,-1.68415,3.78261
54,38,-1.69605,3.82245
55,38,-1.70976,3.862
56,38,-1.72543,3.90124
57,38,-1.7432,3.94013
58,38,-1.76321,3.97867
59,38,-1.78557,4.0168
60,38,-1.8104,4.05452
61,38,-1.8378,4.09178
62,38,-1.86784,4.12856
63,38,-1.90057,4.16483
1,39,-1.21566,1.86824
2,39,-1.24359,1.89766
3,39,-1.2707,1.92752
4,39,-1.29698,1.95783
5,39,-1.32242,1.98858
6,39,-1.347,2.01978
7,39,-1.37071,2.05142
8,39,-1.39355,2.0835
9,39,-1.4155,2.11602
10,39,-1.43657,2.14897
11,39,-1.45673,2.18236
12,39,-1.47599,2.21617
13,39,-1.49435,2.2504
14,39,-1.5118,2.28504
15,39,-1.52834,2.3201
16,39,-1.54397,2.35556
17,39,-1.55871,2.39142
18,39,-1.57255,2.42767
19,39,-1.5855,2.4643
20,39,-1.59758,2.50131
21,39,-1.6088,2.53868
22,39,-1.61917,2.57641
23,39,-1.62872,2.61448
24,39,-1.63746,2.65288
25,39,-1.64542,2.69162
26,39,-1.65263,2.73066
27,39,-1.6591,2.77
28,39,-1.66488,2.80963
29,39,-1.67,2.84952
30,39,-1.67448,2.88968
31,39,-1.67838,2.93008
32,39,-1.68172,2.97071
33,39,-1.68456,3.01155
34,39,-1.68694,3.05258
35,39,-1.68891,3.09379
36,39,-1.69053,3.13515
37,39,-1.69186,3.17666
38,39,-1.69295,3.21828
39,39,-1.69387,3.26001
40,39,-1.69471,3.30181
41,39,-1.69554,3.34368
42,39,-1.69644,3.38558
43,39,-1.6975,3.42749
44,39,-1.69884,3.4694
45,39,-1.70055,3.51128
46,39,-1.70275,3.5531
47,39,-1.70557,3.59484
48,39,-1.70914,3.63647
49,39,-1.7136,3.67798
50,39,-1.7191,3.71933
51,39,-1.72579,3.76049
52,39,-1.73384,3.80145
53,39,-1.7434,3.84218
54,39,-1.75466,3.88264
55,39,-1.76777,3.92282
56,39,-1.78291,3.96267
57,39,-1.80023,4.00218
58,39,-1.8199,4.04132
59,39,-1.84204,4.08006
60,39,-1.86679,4.11836
61,39,-1.89425,4.15621
62,39,-1.92451,4.19357
63,39,-1.95763,4.23042
1,40,-1.2679,1.89767
2,40,-1.29629,1.92754
3,40,-1.32387,1.95787
4,40,-1.35062,1.98866
5,40,-1.37653,2.0199
6,40,-1.4016,2.05159
7,40,-1.4258,2.08372
8,40,-1.44914,2.11631
9,40,-1.47159,2.14934
10,40,-1.49316,2.18281
11,40,-1.51383,2.21672
12,40,-1.53361,2.25106
13,40,-1.55248,2.28583
14,40,-1.57045,2.32103
15,40,-1.58751,2.35664
16,40,-1.60366,2.39266
17,40,-1.61891,2.42908
18,40,-1.63327,2.4659
19,40,-1.64673,2.50311
20,40,-1.65931,2.5407
21,40,-1.67102,2.57866
22,40,-1.68188,2.61698
23,40,-1.69189,2.65565
24,40,-1.70108,2.69466
25,40,-1.70947,2.734
26,40,-1.71707,2.77366
27,40,-1.72392,2.81362
28,40,-1.73005,2.85387
29,40,-1.73547,2.8944
30,40,-1.74023,2.93519
31,40,-1.74435,2.97622
32,40,-1.74788,3.01749
33,40,-1.75086,3.05897
34,40,-1.75333,3.10065
35,40,-1.75533,3.14251
36,40,-1.75692,3.18452
37,40,-1.75815,3.22668
38,40,-1.75909,3.26896
39,40,-1.7598,3.31135
40,40,-1.76036,3.35381
41,40,-1.76083,3.39633
42,40,-1.76131,3.43889
43,40,-1.7619,3.48147
44,40,-1.76269,3.52404
45,40,-1.76379,3.56657
46,40,-1.76532,3.60905
47,40,-1.76742,3.65145
48,40,-1.77021,3.69374
49,40,-1.77387,3.7359
50,40,-1.77853,3.7779
51,40,-1.78437,3.81971
52,40,-1.79156,3.86132
53,40,-1.8003,3.90268
54,40,-1.81075,3.94378
55,40,-1.82311,3.98459
56,40,-1.83758,4.02507
57,40,-1.85432,4.06521
58,40,-1.87352,4.10496
59,40,-1.89533,4.14431
60,40,-1.91991,4.18322
61,40,-1.94737,4.22166
62,40,-1.9778,4.25961
63,40,-2.0113,4.29704
1,41,-1.32002,1.92755
2,41,-1.34887,1.95789
3,41,-1.37692,1.9887
4,41,-1.40416,2.01997
5,41,-1.43055,2.0517
6,41,-1.45611,2.08389
7,41,-1.48081,2.11654
8,41,-1.50464,2.14964
9,41,-1.5276,2.18319
10,41,-1.54968,2.21719
11,41,-1.57086,2.25163
12,41,-1.59115,2.28651
13,41,-1.61054,2.32183
14,41,-1.62902,2.35758
15,41,-1.6466,2.39375
16,41,-1.66326,2.43033
17,41,-1.67903,2.46733
18,41,-1.69389,2.50473
19,41,-1.70785,2.54253
20,41,-1.72092,2.58071
21,41,-1.73311,2.61926
22,41,-1.74443,2.65819
23,41,-1.75489,2.69747
24,41,-1.76451,2.7371
25,41,-1.77331,2.77706
26,41,-1.7813,2.81734
27,41,-1.7885,2.85793
28,41,-1.79494,2.89881
29,41,-1.80065,2.93998
30,41,-1.80565,2.98141
31,41,-1.80997,3.02309
32,41,-1.81365,3.06501
33,41,-1.81673,3.10714
34,41,-1.81923,3.14948
35,41,-1.82122,3.19199
36,41,-1.82274,3.23467
37,41,-1.82383,3.2775
38,41,-1.82457,3.32044
39,41,-1.825,3.36349
40,41,-1.8252,3.40663
41,41,-1.82525,3.44982
42,41,-1.82524,3.49305
43,41,-1.82525,3.53629
44,41,-1.82539,3.57953
45,41,-1.82577,3.62274
46,41,-1.82652,3.66588
47,41,-1.82777,3.70895
48,41,-1.82966,3.75191
49,41,-1.83236,3.79473
50,41,-1.83604,3.83739
51,41,-1.84087,3.87987
52,41,-1.84705,3.92213
53,41,-1.85478,3.96414
54,41,-1.86426,4.00589
55,41,-1.87571,4.04734
56,41,-1.88933,4.08846
57,41,-1.90534,4.12923
58,41,-1.92394,4.16961
59,41,-1.9453,4.20957
60,41,-1.96959,4.2491
61,41,-1.99697,4.28815
62,41,-2.02753,4.32669
63,41,-2.06137,4.36471
1,42,-1.37199,1.9579
2,42,-1.40132,1.98873
3,42,-1.42985,2.02002
4,42,-1.45757,2.05178
5,42,-1.48446,2.08401
6,42,-1.51051,2.11671
7,42,-1.53571,2.14987
8,42,-1.56005,2.18349
9,42,-1.58351,2.21757
10,42,-1.6061,2.2521
11,42,-1.6278,2.28709
12,42,-1.6486,2.32252
13,42,-1.66851,2.35839
14,42,-1.6875,2.3947
15,42,-1.70559,2.43144
16,42,-1.72277,2.46861
17,42,-1.73904,2.50619
18,42,-1.7544,2.54418
19,42,-1.76885,2.58257
20,42,-1.78241,2.62135
21,42,-1.79507,2.66051
22,42,-1.80684,2.70005
23,42,-1.81774,2.73995
24,42,-1.82777,2.7802
25,42,-1.83696,2.82079
26,42,-1.84531,2.8617
27,42,-1.85284,2.90293
28,42,-1.85958,2.94446
29,42,-1.86555,2.98628
30,42,-1.87076,3.02836
31,42,-1.87525,3.0707
32,42,-1.87906,3.11328
33,42,-1.8822,3.15607
34,42,-1.88472,3.19907
35,42,-1.88665,3.24226
36,42,-1.88805,3.28561
37,42,-1.88895,3.32911
38,42,-1.88942,3.37273
39,42,-1.88952,3.41646
40,42,-1.88931,3.46027
41,42,-1.88886,3.50415
42,42,-1.88827,3.54806
43,42,-1.88762,3.59198
44,42,-1.88701,3.6359
45,42,-1.88657,3.67979
46,42,-1.88641,3.72361
47,42,-1.88668,3.76736
48,42,-1.88753,3.81099
49,42,-1.88912,3.85449
50,42,-1.89164,3.89782
51,42,-1.89529,3.94096
52,42,-1.90027,3.98389
53,42,-1.90681,4.02657
54,42,-1.91513,4.06897
55,42,-1.92547,4.11108
56,42,-1.93806,4.15284
57,42,-1.95316,4.19425
58,42,-1.97098,4.23527
59,42,-1.99174,4.27586
60,42,-2.01563,4.31601
61,42,-2.04283,4.35567
62,42,-2.07346,4.39483
63,42,-2.10762,4.43344
1,43,-1.42381,1.98874
2,43,-1.45362,2.02005
3,43,-1.48264,2.05183
4,43,-1.51084,2.08409
5,43,-1.53823,2.11683
6,43,-1.56478,2.15004
7,43,-1.59048,2.18372
8,43,-1.61533,2.21788
9,43,-1.63931,2.25249
10,43,-1.66241,2.28757
11,43,-1.68463,2.32311
12,43,-1.70595,2.3591
13,43,-1.72637,2.39553
14,43,-1.74588,2.43241
15,43,-1.76448,2.46973
16,43,-1.78217,2.50748
17,43,-1.79894,2.54565
18,43,-1.81479,2.58424
19,43,-1.82974,2.62324
20,43,-1.84376,2.66263
21,43,-1.85688,2.70241
22,43,-1.8691,2.74257
23,43,-1.88042,2.7831
24,43,-1.89086,2.82398
25,43,-1.90042,2.86521
26,43,-1.90912,2.90677
27,43,-1.91697,2.94865
28,43,-1.92399,2.99083
29,43,-1.93019,3.0333
30,43,-1.9356,3.07605
31,43,-1.94024,3.11906
32,43,-1.94414,3.1623
33,43,-1.94732,3.20577
34,43,-1.94981,3.24945
35,43,-1.95166,3.29332
36,43,-1.9529,3.33735
37,43,-1.95357,3.38153
38,43,-1.95373,3.42584
39,43,-1.95343,3.47026
40,43,-1.95274,3.51476
41,43,-1.95173,3.55933
42,43,-1.95047,3.60393
43,43,-1.94907,3.64855
44,43,-1.94762,3.69316
45,43,-1.94623,3.73773
46,43,-1.94505,3.78225
47,43,-1.9442,3.82668
48,43,-1.94385,3.871
49,43,-1.94417,3.91519
50,43,-1.94536,3.9592
51,43,-1.94764,4.00303
52,43,-1.95122,4.04663
53,43,-1.95635,4.08998
54,43,-1.96328,4.13305
55,43,-1.97229,4.17582
56,43,-1.98365,4.21824
57,43,-1.99762,4.2603
58,43,-2.01447,4.30196
59,43,-2.03445,4.3432
60,43,-2.0578,4.38398
61,43,-2.0847,4.42427
62,43,-2.11532,4.46404
63,43,-2.14977,4.50326
1,44,-1.47544,2.02005
2,44,-1.50574,2.05186
3,44,-1.53525,2.08414
4,44,-1.56395,2.11691
5,44,-1.59184,2.15017
6,44,-1.6189,2.1839
7,44,-1.64512,2.21811
8,44,-1.67048,2.2528
9,44,-1.69497,2.28796
10,44,-1.71859,2.32359
11,44,-1.74133,2.35969
12,44,-1.76317,2.39625
13,44,-1.7841,2.43326
14,44,-1.80413,2.47072
15,44,-1.82325,2.50863
16,44,-1.84144,2.54697
17,44,-1.85872,2.58574
18,44,-1.87507,2.62494
19,44,-1.89049,2.66455
20,44,-1.90499,2.70456
21,44,-1.91857,2.74497
22,44,-1.93122,2.78576
23,44,-1.94296,2.82692
24,44,-1.95379,2.86845
25,44,-1.96372,2.91033
26,44,-1.97276,2.95254
27,44,-1.98091,2.99508
28,44,-1.98819,3.03793
29,44,-1.99462,3.08107
30,44,-2.00021,3.12449
31,44,-2.00498,3.16817
32,44,-2.00894,3.2121
33,44,-2.01213,3.25626
34,44,-2.01458,3.30062
35,44,-2.0163,3.34518
36,44,-2.01735,3.38991
37,44,-2.01775,3.43479
38,44,-2.01755,3.47979
39,44,-2.0168,3.52491
40,44,-2.01557,3.57011
41,44,-2.01392,3.61538
42,44,-2.01193,3.66068
43,44,-2.00969,3.70601
44,44,-2.00729,3.75132
45,44,-2.00485,3.7966
46,44,-2.00251,3.84181
47,44,-2.00039,3.88694
48,44,-1.99869,3.93196
49,44,-1.99756,3.97684
50,44,-1.99723,4.02155
51,44,-1.99792,4.06606
52,44,-1.99987,4.11035
53,44,-2.00336,4.15439
54,44,-2.00866,4.19814
55,44,-2.01609,4.24157
56,44,-2.02595,4.28467
57,44,-2.03855,4.32739
58,44,-2.0542,4.36971
59,44,-2.07321,4.41159
60,44,-2.09583,4.45301
61,44,-2.1223,4.49394
62,44,-2.15282,4.53434
63,44,-2.18751,4.57418
1,45,-1.52687,2.05187
2,45,-1.55766,2.08417
3,45,-1.58767,2.11696
4,45,-1.61688,2.15025
5,45,-1.64528,2.18403
6,45,-1.67285,2.21829
7,45,-1.69959,2.25304
8,45,-1.72547,2.28828
9,45,-1.75048,2.32399
10,45,-1.77463,2.36018
11,45,-1.79788,2.39685
12,45,-1.82025,2.43398
13,45,-1.84171,2.47158
14,45,-1.86226,2.50963
15,45,-1.88189,2.54813
16,45,-1.90059,2.58708
17,45,-1.91837,2.62646
18,45,-1.93521,2.66627
19,45,-1.95112,2.70651
20,45,-1.96609,2.74715
21,45,-1.98011,2.78819
22,45,-1.9932,2.82963
23,45,-2.00536,2.87144
24,45,-2.01658,2.91362
25,45,-2.02687,2.95616
26,45,-2.03623,2.99904
27,45,-2.04468,3.04225
28,45,-2.05222,3.08577
29,45,-2.05886,3.12959
30,45,-2.06461,3.17369
31,45,-2.06949,3.21807
32,45,-2.07351,3.26269
33,45,-2.07669,3.30754
34,45,-2.07906,3.3526
35,45,-2.08064,3.39786
36,45,-2.08146,3.44329
37,45,-2.08155,3.48888
38,45,-2.08095,3.53459
39,45,-2.07972,3.58042
40,45,-2.07789,3.62633
41,45,-2.07554,3.67231
42,45,-2.07274,3.71833
43,45,-2.06957,3.76437
44,45,-2.06612,3.81039
45,45,-2.06251,3.85638
46,45,-2.05888,3.90231
47,45,-2.05535,3.94815
48,45,-2.05212,3.99388
49,45,-2.04936,4.03947
50,45,-2.04729,4.08488
51,45,-2.04617,4.13009
52,45,-2.04624,4.17508
53,45,-2.04782,4.21981
54,45,-2.05121,4.26425
55,45,-2.05676,4.30837
56,45,-2.06483,4.35214
57,45,-2.07578,4.39554
58,45,-2.08996,4.43852
59,45,-2.10773,4.48107
60,45,-2.12941,4.52314
61,45,-2.15528,4.56471
62,45,-2.18558,4.60574
63,45,-2.22047,4.64621
1,46,-1.57807,2.08418
2,46,-1.60937,2.11699
3,46,-1.63989,2.1503
4,46,-1.66961,2.18411
5,46,-1.69852,2.21842
6,46,-1.72662,2.25323
7,46,-1.75387,2.28852
8,46,-1.78028,2.32431
9,46,-1.80582,2.36059
10,46,-1.8305,2.39735
11,46,-1.85428,2.43459
12,46,-1.87717,2.47231
13,46,-1.89916,2.5105
14,46,-1.92023,2.54915
15,46,-1.94038,2.58826
16,46,-1.9596,2.62782
17,46,-1.97788,2.66782
18,46,-1.99522,2.70826
19,46,-2.01161,2.74913
20,46,-2.02705,2.79041
21,46,-2.04153,2.8321
22,46,-2.05505,2.87419
23,46,-2.06762,2.91666
24,46,-2.07922,2.95951
25,46,-2.08987,3.00271
26,46,-2.09956,3.04627
27,46,-2.1083,3.09016
28,46,-2.11609,3.13436
29,46,-2.12293,3.17887
30,46,-2.12884,3.22367
31,46,-2.13382,3.26874
32,46,-2.13789,3.31407
33,46,-2.14105,3.35962
34,46,-2.14333,3.4054
35,46,-2.14474,3.45137
36,46,-2.14531,3.49751
37,46,-2.14506,3.54382
38,46,-2.14403,3.59025
39,46,-2.14226,3.6368
40,46,-2.13979,3.68344
41,46,-2.13667,3.73014
42,46,-2.13299,3.77689
43,46,-2.1288,3.82365
44,46,-2.12421,3.8704
45,46,-2.11933,3.91711
46,46,-2.11427,3.96377
47,46,-2.10918,4.01033
48,46,-2.10424,4.05678
49,46,-2.09965,4.10308
50,46,-2.09562,4.14921
51,46,-2.09243,4.19513
52,46,-2.09035,4.24083
53,46,-2.08972,4.28626
54,46,-2.09088,4.3314
55,46,-2.09422,4.37622
56,46,-2.10016,4.42068
57,46,-2.1091,4.46476
58,46,-2.12148,4.50842
59,46,-2.13772,4.55163
60,46,-2.1582,4.59437
61,46,-2.18327,4.63659
62,46,-2.2132,4.67827
63,46,-2.24821,4.71938
1,47,-1.62903,2.117
2,47,-1.66084,2.15033
3,47,-1.69187,2.18416
4,47,-1.72211,2.21851
5,47,-1.75155,2.25336
6,47,-1.78017,2.28871
7,47,-1.80796,2.32456
8,47,-1.8349,2.36092
9,47,-1.86098,2.39776
10,47,-1.88618,2.43511
11,47,-1.91051,2.47293
12,47,-1.93393,2.51124
13,47,-1.95645,2.55003
14,47,-1.97805,2.58929
15,47,-1.99873,2.62902
16,47,-2.01846,2.6692
17,47,-2.03725,2.70983
18,47,-2.05509,2.75091
19,47,-2.07197,2.79242
20,47,-2.08788,2.83435
21,47,-2.10281,2.8767
22,47,-2.11677,2.91945
23,47,-2.12975,2.96259
24,47,-2.14174,3.00611
25,47,-2.15275,3.05
26,47,-2.16277,3.09424
27,47,-2.17179,3.13882
28,47,-2.17983,3.18372
29,47,-2.18688,3.22893
30,47,-2.19294,3.27444
31,47,-2.19802,3.32022
32,47,-2.20212,3.36625
33,47,-2.20526,3.41253
34,47,-2.20743,3.45902
35,47,-2.20866,3.50572
36,47,-2.20896,3.55259
37,47,-2.20835,3.59962
38,47,-2.20686,3.64679
39,47,-2.20451,3.69407
40,47,-2.20136,3.74145
41,47,-2.19743,3.78888
42,47,-2.1928,3.83636
43,47,-2.18753,3.88386
44,47,-2.1817,3.93135
45,47,-2.17542,3.9788
46,47,-2.1688,4.02619
47,47,-2.162,4.07348
48,47,-2.15518,4.12066
49,47,-2.14854,4.16769
50,47,-2.14231,4.21455
51,47,-2.13678,4.2612
52,47,-2.13225,4.30761
53,47,-2.12907,4.35376
54,47,-2.12763,4.39961
55,47,-2.12838,4.44513
56,47,-2.13177,4.4903
57,47,-2.13831,4.53507
58,47,-2.1485,4.57942
59,47,-2.16283,4.62331
60,47,-2.18179,4.66672
61,47,-2.20579,4.70961
62,47,-2.23518,4.75194
63,47,-2.27022,4.79369
1,48,-1.67973,2.15034
2,48,-1.71205,2.18419
3,48,-1.74361,2.21856
4,48,-1.77438,2.25344
5,48,-1.80435,2.28884
6,48,-1.8335,2.32475
7,48,-1.86182,2.36117
8,48,-1.8893,2.3981
9,48,-1.91593,2.43552
10,48,-1.94168,2.47345
11,48,-1.96654,2.51188
12,48,-1.99051,2.55079
13,48,-2.01357,2.59019
14,48,-2.0357,2.63007
15,48,-2.05691,2.67042
16,48,-2.07717,2.71123
17,48,-2.09647,2.75251
18,48,-2.11481,2.79423
19,48,-2.13218,2.83639
20,48,-2.14857,2.87899
21,48,-2.16397,2.922
22,48,-2.17837,2.96542
23,48,-2.19177,3.00925
24,48,-2.20415,3.05345
25,48,-2.21552,3.09803
26,48,-2.22587,3.14297
27,48,-2.23519,3.18825
28,48,-2.24348,3.23386
29,48,-2.25073,3.27978
30,48,-2.25695,3.326
31,48,-2.26212,3.3725
32,48,-2.26626,3.41926
33,48,-2.26937,3.46627
34,48,-2.27143,3.5135
35,48,-2.27248,3.56093
36,48,-2.2725,3.60854
37,48,-2.27151,3.65631
38,48,-2.26954,3.70422
39,48,-2.26659,3.75225
40,48,-2.26271,3.80037
41,48,-2.25793,3.84855
42,48,-2.25229,3.89678
43,48,-2.24586,3.94502
44,48,-2.23871,3.99326
45,48,-2.23093,4.04145
46,48,-2.22263,4.08959
47,48,-2.21396,4.13763
48,48,-2.20507,4.18555
49,48,-2.19617,4.23332
50,48,-2.18749,4.28092
51,48,-2.17933,4.3283
52,48,-2.172,4.37545
53,48,-2.1659,4.42232
54,48,-2.16146,4.46889
55,48,-2.15916,4.51513
56,48,-2.15954,4.56101
57,48,-2.16319,4.60648
58,48,-2.1707,4.65153
59,48,-2.18268,4.69612
60,48,-2.19971,4.74021
61,48,-2.22232,4.78377
62,48,-2.25095,4.82677
63,48,-2.2859,4.86918
1,49,-1.73013,2.1842
2,49,-1.76298,2.21859
3,49,-1.79507,2.2535
4,49,-1.82637,2.28893
5,49,-1.85688,2.32488
6,49,-1.88658,2.36136
7,49,-1.91545,2.39835
8,49,-1.94348,2.43586
9,49,-1.97065,2.47388
10,49,-1.99695,2.5124
11,49,-2.02237,2.55143
12,49,-2.04689,2.59096
13,49,-2.07049,2.63098
14,49,-2.09317,2.67149
15,49,-2.11491,2.71247
16,49,-2.1357,2.75393
17,49,-2.15553,2.79585
18,49,-2.17439,2.83823
19,49,-2.19226,2.88106
20,49,-2.20913,2.92432
21,49,-2.225,2.96802
22,49,-2.23985,3.01212
23,49,-2.25367,3.05663
24,49,-2.26646,3.10154
25,49,-2.2782,3.14682
26,49,-2.28889,3.19246
27,49,-2.29851,3.23846
28,49,-2.30706,3.28479
29,49,-2.31452,3.33143
30,49,-2.3209,3.37838
31,49,-2.32618,3.42561
32,49,-2.33037,3.47311
33,49,-2.33344,3.52085
34,49,-2.33541,3.56883
35,49,-2.33626,3.617
36,49,-2.336,3.66536
37,49,-2.33463,3.71389
38,49,-2.33216,3.76255
39,49,-2.32861,3.81134
40,49,-2.32398,3.86021
41,49,-2.3183,3.90916
42,49,-2.31162,3.95814
43,49,-2.30397,4.00715
44,49,-2.29541,4.05614
45,49,-2.28604,4.1051
46,49,-2.27594,4.15399
47,49,-2.26524,4.20279
48,49,-2.2541,4.25147
49,49,-2.24272,4.29999
50,49,-2.23133,4.34833
51,49,-2.22022,4.39646
52,49,-2.20974,4.44435
53,49,-2.2003,4.49196
54,49,-2.19238,4.53927
55,49,-2.18652,4.58624
56,49,-2.18333,4.63283
57,49,-2.18351,4.67903
58,49,-2.18776,4.72478
59,49,-2.19683,4.77007
60,49,-2.21143,4.81486
61,49,-2.23223,4.85911
62,49,-2.2598,4.90279
63,49,-2.29452,4.94586
1,50,-1.78023,2.2186
2,50,-1.81361,2.25352
3,50,-1.84624,2.28898
4,50,-1.87809,2.32498
5,50,-1.90914,2.3615
6,50,-1.93939,2.39855
7,50,-1.96882,2.43612
8,50,-1.99741,2.47422
9,50,-2.02514,2.51284
10,50,-2.052,2.55197
11,50,-2.07798,2.59161
12,50,-2.10305,2.63176
13,50,-2.12721,2.67241
14,50,-2.15045,2.71355
15,50,-2.17274,2.75519
16,50,-2.19407,2.7973
17,50,-2.21443,2.83988
18,50,-2.23381,2.88293
19,50,-2.25219,2.92643
20,50,-2.26956,2.97038
21,50,-2.28591,3.01476
22,50,-2.30122,3.05956
23,50,-2.31548,3.10477
24,50,-2.32868,3.15038
25,50,-2.3408,3.19637
26,50,-2.35184,3.24274
27,50,-2.36177,3.28945
28,50,-2.3706,3.33651
29,50,-2.37829,3.38389
30,50,-2.38484,3.43158
31,50,-2.39024,3.47956
32,50,-2.39448,3.5278
33,50,-2.39754,3.5763
34,50,-2.39941,3.62503
35,50,-2.40008,3.67396
36,50,-2.39955,3.72309
37,50,-2.39781,3.77237
38,50,-2.39484,3.82181
39,50,-2.39066,3.87136
40,50,-2.38527,3.921
41,50,-2.37869,3.97072
42,50,-2.37092,4.02048
43,50,-2.362,4.07025
44,50,-2.35199,4.12002
45,50,-2.34093,4.16974
46,50,-2.32892,4.21941
47,50,-2.31606,4.26897
48,50,-2.30249,4.31842
49,50,-2.28841,4.36771
50,50,-2.27403,4.41681
51,50,-2.25965,4.4657
52,50,-2.24563,4.51434
53,50,-2.23239,4.5627
54,50,-2.22046,4.61075
55,50,-2.21044,4.65846
56,50,-2.20304,4.70579
57,50,-2.19905,4.75271
58,50,-2.19933,4.79919
59,50,-2.20478,4.84519
60,50,-2.21631,4.89068
61,50,-2.23477,4.93562
62,50,-2.26088,4.97999
63,50,-2.29518,5.02375
1,51,-1.82999,2.25353
2,51,-1.86392,2.28901
3,51,-1.89709,2.32503
4,51,-1.92949,2.36159
5,51,-1.96111,2.39868
6,51,-1.99192,2.43632
7,51,-2.02191,2.47448
8,51,-2.05106,2.51318
9,51,-2.07937,2.55241
10,51,-2.1068,2.59216
11,51,-2.13334,2.63242
12,51,-2.15899,2.67321
13,51,-2.18372,2.7145
14,51,-2.20751,2.75629
15,51,-2.23036,2.79857
16,51,-2.25225,2.84135
17,51,-2.27315,2.8846
18,51,-2.29307,2.92833
19,51,-2.31197,2.97251
20,51,-2.32985,3.01715
21,51,-2.34669,3.06223
22,51,-2.36248,3.10774
23,51,-2.37719,3.15366
24,51,-2.39082,3.19999
25,51,-2.40334,3.24671
26,51,-2.41475,3.2938
27,51,-2.42501,3.34126
28,51,-2.43412,3.38906
29,51,-2.44206,3.43718
30,51,-2.44881,3.48562
31,51,-2.45435,3.53435
32,51,-2.45866,3.58336
33,51,-2.46172,3.63262
34,51,-2.46352,3.68211
35,51,-2.46403,3.73182
36,51,-2.46324,3.78172
37,51,-2.46113,3.83178
38,51,-2.45769,3.88199
39,51,-2.45289,3.93232
40,51,-2.44674,3.98275
41,51,-2.43924,4.03325
42,51,-2.43037,4.08379
43,51,-2.42016,4.13435
44,51,-2.40863,4.1849
45,51,-2.39583,4.23541
46,51,-2.38181,4.28585
47,51,-2.36666,4.3362
48,51,-2.3505,4.38642
49,51,-2.3335,4.43649
50,51,-2.31587,4.48636
51,51,-2.29789,4.53602
52,51,-2.27991,4.58543
53,51,-2.26238,4.63455
54,51,-2.24585,4.68336
55,51,-2.231,4.73182
56,51,-2.2186,4.77989
57,51,-2.2096,4.82755
58,51,-2.20502,4.87476
59,51,-2.20597,4.92149
60,51,-2.21361,4.9677
61,51,-2.22903,5.01335
62,51,-2.25318,5.05842
63,51,-2.28679,5.10286
1,52,-1.8794,2.28902
2,52,-1.91388,2.32506
3,52,-1.94761,2.36164
4,52,-1.98057,2.39878
5,52,-2.01276,2.43646
6,52,-2.04414,2.47468
7,52,-2.0747,2.51345
8,52,-2.10443,2.55276
9,52,-2.13331,2.5926
10,52,-2.16133,2.63298
11,52,-2.18845,2.67388
12,52,-2.21468,2.7153
13,52,-2.23999,2.75724
14,52,-2.26436,2.79969
15,52,-2.28778,2.84265
16,52,-2.31023,2.88609
17,52,-2.3317,2.93003
18,52,-2.35216,2.97444
19,52,-2.3716,3.01933
20,52,-2.39001,3.06467
21,52,-2.40736,3.11045
22,52,-2.42363,3.15668
23,52,-2.43882,3.20332
24,52,-2.45289,3.25038
25,52,-2.46583,3.29784
26,52,-2.47763,3.34567
27,52,-2.48824,3.39387
28,52,-2.49767,3.44243
29,52,-2.50588,3.49131
30,52,-2.51284,3.54051
31,52,-2.51855,3.59001
32,52,-2.52296,3.63979
33,52,-2.52605,3.68982
34,52,-2.5278,3.7401
35,52,-2.52818,3.79059
36,52,-2.52716,3.84127
37,52,-2.52471,3.89212
38,52,-2.52081,3.94312
39,52,-2.51542,3.99425
40,52,-2.50853,4.04547
41,52,-2.50011,4.09676
42,52,-2.49015,4.1481
43,52,-2.47864,4.19945
44,52,-2.46557,4.2508
45,52,-2.45098,4.30211
46,52,-2.43488,4.35334
47,52,-2.41734,4.40449
48,52,-2.39845,4.4555
49,52,-2.37833,4.50635
50,52,-2.35719,4.55701
51,52,-2.33526,4.60745
52,52,-2.3129,4.65764
53,52,-2.29055,4.70754
54,52,-2.26878,4.75711
55,52,-2.24831,4.80633
56,52,-2.23003,4.85517
57,52,-2.215,4.90358
58,52,-2.20447,4.95153
59,52,-2.1998,4.99899
60,52,-2.20247,5.04593
61,52,-2.21391,5.0923
62,52,-2.23541,5.13807
63,52,-2.26796,5.18322
1,53,-1.92843,2.32507
2,53,-1.96347,2.36167
3,53,-1.99777,2.39883
4,53,-2.03131,2.43655
5,53,-2.06406,2.47483
6,53,-2.09603,2.51365
7,53,-2.12718,2.55303
8,53,-2.1575,2.59296
9,53,-2.18697,2.63343
10,53,-2.21557,2.67444
11,53,-2.24329,2.71599
12,53,-2.27011,2.75806
13,53,-2.29601,2.80066
14,53,-2.32097,2.84378
15,53,-2.34498,2.88741
16,53,-2.36801,2.93154
17,53,-2.39005,2.97617
18,53,-2.41108,3.02128
19,53,-2.43107,3.06687
20,53,-2.45002,3.11293
21,53,-2.4679,3.15944
22,53,-2.48469,3.20639
23,53,-2.50036,3.25377
24,53,-2.51491,3.30157
25,53,-2.52829,3.34977
26,53,-2.54049,3.39836
27,53,-2.55149,3.44732
28,53,-2.56126,3.49664
29,53,-2.56976,3.54629
30,53,-2.57698,3.59627
31,53,-2.58288,3.64655
32,53,-2.58743,3.69711
33,53,-2.59059,3.74793
34,53,-2.59233,3.79899
35,53,-2.59261,3.85028
36,53,-2.5914,3.90176
37,53,-2.58865,3.95341
38,53,-2.58433,4.00522
39,53,-2.57839,4.05715
40,53,-2.57079,4.10917
41,53,-2.56149,4.16128
42,53,-2.55045,4.21342
43,53,-2.53765,4.26559
44,53,-2.52305,4.31774
45,53,-2.50664,4.36985
46,53,-2.48843,4.4219
47,53,-2.46842,4.47385
48,53,-2.44668,4.52566
49,53,-2.42329,4.57732
50,53,-2.39839,4.62878
51,53,-2.37221,4.68001
52,53,-2.34504,4.73099
53,53,-2.31731,4.78167
54,53,-2.2896,4.83203
55,53,-2.26265,4.88202
56,53,-2.23743,4.93162
57,53,-2.21517,4.9808
58,53,-2.19733,5.02951
59,53,-2.18561,5.07771
60,53,-2.18188,5.12539
61,53,-2.18808,5.17249
62,53,-2.20597,5.21899
63,53,-2.23695,5.26484
1,54,-1.97706,2.36168
2,54,-2.01267,2.39886
3,54,-2.04755,2.43661
4,54,-2.08166,2.47492
5,54,-2.11501,2.5138
6,54,-2.14757,2.55324
7,54,-2.17931,2.59324
8,54,-2.21023,2.63379
9,54,-2.2403,2.6749
10,54,-2.26951,2.71656
11,54,-2.29784,2.75876
12,54,-2.32526,2.8015
13,54,-2.35177,2.84477
14,54,-2.37733,2.88856
15,54,-2.40194,2.93288
16,54,-2.42557,2.97771
17,54,-2.4482,3.02304
18,54,-2.46981,3.06886
19,54,-2.49038,3.11517
20,54,-2.50989,3.16195
21,54,-2.52832,3.20919
22,54,-2.54564,3.25688
23,54,-2.56183,3.30501
24,54,-2.57687,3.35356
25,54,-2.59072,3.40252
26,54,-2.60337,3.45187
27,54,-2.61477,3.50161
28,54,-2.62491,3.5517
29,54,-2.63375,3.60214
30,54,-2.64126,3.6529
31,54,-2.64739,3.70397
32,54,-2.65211,3.75533
33,54,-2.65539,3.80695
34,54,-2.65716,3.85882
35,54,-2.6574,3.91091
36,54,-2.65605,3.9632
37,54,-2.65305,4.01567
38,54,-2.64836,4.06829
39,54,-2.64192,4.12104
40,54,-2.63366,4.17389
41,54,-2.62354,4.22681
42,54,-2.61148,4.27977
43,54,-2.59742,4.33276
44,54,-2.58132,4.38573
45,54,-2.56312,4.43867
46,54,-2.54278,4.49153
47,54,-2.52028,4.5443
48,54,-2.49562,4.59693
49,54,-2.46882,4.6494
50,54,-2.43998,4.70167
51,54,-2.40925,4.75371
52,54,-2.37687,4.80549
53,54,-2.34322,4.85697
54,54,-2.30883,4.90812
55,54,-2.27445,4.9589
56,54,-2.24112,5.00929
57,54,-2.21017,5.05923
58,54,-2.18334,5.10871
59,54,-2.16271,5.15768
60,54,-2.1507,5.2061
61,54,-2.1499,5.25395
62,54,-2.16282,5.30117
63,54,-2.19147,5.34775
1,55,-2.02527,2.39887
2,55,-2.06146,2.43664
3,55,-2.09692,2.47498
4,55,-2.13163,2.5139
5,55,-2.16557,2.55339
6,55,-2.19873,2.59345
7,55,-2.23108,2.63407
8,55,-2.26261,2.67527
9,55,-2.2933,2.71702
10,55,-2.32313,2.75934
11,55,-2.35207,2.8022
12,55,-2.38012,2.84561
13,55,-2.40725,2.88957
14,55,-2.43343,2.93405
15,55,-2.45866,2.97907
16,55,-2.4829,3.0246
17,55,-2.50614,3.07064
18,55,-2.52835,3.11719
19,55,-2.54952,3.16423
20,55,-2.56961,3.21174
21,55,-2.58861,3.25973
22,55,-2.60649,3.30817
23,55,-2.62322,3.35706
24,55,-2.63878,3.40637
25,55,-2.65314,3.4561
26,55,-2.66626,3.50623
27,55,-2.67811,3.55675
28,55,-2.68866,3.60763
29,55,-2.69787,3.65886
30,55,-2.7057,3.71043
31,55,-2.71212,3.7623
32,55,-2.71707,3.81447
33,55,-2.7205,3.8669
34,55,-2.72237,3.91959
35,55,-2.72262,3.9725
36,55,-2.72119,4.02561
37,55,-2.71802,4.07891
38,55,-2.71303,4.13236
39,55,-2.70616,4.18593
40,55,-2.69732,4.23961
41,55,-2.68644,4.29337
42,55,-2.67343,4.34717
43,55,-2.6582,4.40099
44,55,-2.64066,4.4548
45,55,-2.62072,4.50857
46,55,-2.59831,4.56227
47,55,-2.57333,4.61586
48,55,-2.54572,4.66932
49,55,-2.51546,4.72262
50,55,-2.48255,4.77571
51,55,-2.44705,4.82857
52,55,-2.40911,4.88116
53,55,-2.36901,4.93346
54,55,-2.32721,4.98541
55,55,-2.28441,5.03699
56,55,-2.24162,5.08817
57,55,-2.2003,5.1389
58,55,-2.1624,5.18916
59,55,-2.13047,5.2389
60,55,-2.1076,5.28808
61,55,-2.09735,5.33668
62,55,-2.1033,5.38466
63,55,-2.1285,5.43197
1,56,-2.07303,2.43665
2,56,-2.1098,2.47501
3,56,-2.14586,2.51396
4,56,-2.18117,2.55349
5,56,-2.21572,2.5936
6,56,-2.2495,2.63429
7,56,-2.28247,2.67556
8,56,-2.31462,2.7174
9,56,-2.34594,2.75981
10,56,-2.3764,2.80279
11,56,-2.40598,2.84633
12,56,-2.43466,2.89042
13,56,-2.46242,2.93507
14,56,-2.48925,2.98026
15,56,-2.5151,3.02598
16,56,-2.53998,3.07223
17,56,-2.56385,3.119
18,56,-2.58669,3.16628
19,56,-2.60847,3.21405
20,56,-2.62917,3.26232
21,56,-2.64877,3.31106
22,56,-2.66724,3.36027
23,56,-2.68454,3.40992
24,56,-2.70065,3.46001
25,56,-2.71554,3.51053
26,56,-2.72917,3.56145
27,56,-2.74151,3.61276
28,56,-2.75251,3.66444
29,56,-2.76214,3.71648
30,56,-2.77036,3.76886
31,56,-2.7771,3.82155
32,56,-2.78233,3.87453
33,56,-2.78599,3.9278
34,56,-2.78802,3.98131
35,56,-2.78835,4.03506
36,56,-2.78692,4.08901
37,56,-2.78364,4.14314
38,56,-2.77844,4.19743
39,56,-2.77123,4.25185
40,56,-2.76191,4.30638
41,56,-2.75038,4.36098
42,56,-2.73652,4.41563
43,56,-2.72022,4.4703
44,56,-2.70135,4.52495
45,56,-2.67978,4.57957
46,56,-2.65538,4.63411
47,56,-2.628,4.68855
48,56,-2.59751,4.74285
49,56,-2.5638,4.79699
50,56,-2.52677,4.85092
51,56,-2.48636,4.90461
52,56,-2.44261,4.95803
53,56,-2.39563,5.01115
54,56,-2.34575,5.06392
55,56,-2.29352,5.11632
56,56,-2.23986,5.1683
57,56,-2.18623,5.21983
58,56,-2.13476,5.27088
59,56,-2.08843,5.3214
60,56,-2.0512,5.37136
61,56,-2.02791,5.42072
62,56,-2.02386,5.46945
63,56,-2.04384,5.51751
1,57,-2.12031,2.47502
2,57,-2.15768,2.51399
3,57,-2.19434,2.55355
4,57,-2.23027,2.5937
5,57,-2.26544,2.63444
6,57,-2.29984,2.67577
7,57,-2.33345,2.71769
8,57,-2.36624,2.76019
9,57,-2.3982,2.80327
10,57,-2.4293,2.84693
11,57,-2.45953,2.89115
12,57,-2.48887,2.93594
13,57,-2.51728,2.98129
14,57,-2.54476,3.02719
15,57,-2.57127,3.07363
16,57,-2.5968,3.12061
17,57,-2.62132,3.16812
18,57,-2.64481,3.21614
19,57,-2.66723,3.26467
20,57,-2.68857,3.31369
21,57,-2.70879,3.3632
22,57,-2.72788,3.41318
23,57,-2.74578,3.46362
24,57,-2.76248,3.5145
25,57,-2.77794,3.56581
26,57,-2.79212,3.61753
27,57,-2.80499,3.66965
28,57,-2.81649,3.72215
29,57,-2.82659,3.77501
30,57,-2.83523,3.82821
31,57,-2.84237,3.88173
32,57,-2.84795,3.93555
33,57,-2.8519,3.98965
34,57,-2.85416,4.04401
35,57,-2.85466,4.0986
36,57,-2.85331,4.1534
37,57,-2.85003,4.20839
38,57,-2.84472,4.26353
39,57,-2.83727,4.31881
40,57,-2.82758,4.37419
41,57,-2.81552,4.42965
42,57,-2.80095,4.48516
43,57,-2.78373,4.54069
44,57,-2.76368,4.59621
45,57,-2.74063,4.65169
46,57,-2.7144,4.70709
47,57,-2.68477,4.76238
48,57,-2.65154,4.81754
49,57,-2.6145,4.87253
50,57,-2.57342,4.92731
51,57,-2.52811,4.98185
52,57,-2.47842,5.03611
53,57,-2.42429,5.09006
54,57,-2.36578,5.14367
55,57,-2.30321,5.19689
56,57,-2.23727,5.24969
57,57,-2.16922,5.30203
58,57,-2.10121,5.35388
59,57,-2.03655,5.4052
60,57,-1.98013,5.45595
61,57,-1.93855,5.50609
62,57,-1.91973,5.55558
63,57,-1.93155,5.6044
1,58,-2.16709,2.514
2,58,-2.20507,2.55358
3,58,-2.24235,2.59376
4,58,-2.2789,2.63454
5,58,-2.3147,2.67593
6,58,-2.34974,2.71791
7,58,-2.38399,2.76049
8,58,-2.41744,2.80366
9,58,-2.45005,2.84742
10,58,-2.48182,2.89176
11,58,-2.51271,2.93668
12,58,-2.54271,2.98218
13,58,-2.5718,3.02824
14,58,-2.59995,3.07486
15,58,-2.62714,3.12204
16,58,-2.65334,3.16975
17,58,-2.67854,3.21801
18,58,-2.70269,3.26679
19,58,-2.72578,3.31608
20,58,-2.74779,3.36588
21,58,-2.76867,3.41617
22,58,-2.7884,3.46693
23,58,-2.80694,3.51816
24,58,-2.82427,3.56985
25,58,-2.84034,3.62196
26,58,-2.85511,3.6745
27,58,-2.86855,3.72744
28,58,-2.8806,3.78076
29,58,-2.89122,3.83445
30,58,-2.90036,3.88849
31,58,-2.90796,3.94286
32,58,-2.91395,3.99753
33,58,-2.91827,4.05248
34,58,-2.92085,4.10769
35,58,-2.9216,4.16314
36,58,-2.92043,4.21881
37,58,-2.91725,4.27466
38,58,-2.91195,4.33067
39,58,-2.9044,4.38682
40,58,-2.89449,4.44308
41,58,-2.88205,4.49941
42,58,-2.86693,4.5558
43,58,-2.84896,4.6122
44,58,-2.82792,4.66859
45,58,-2.8036,4.72494
46,58,-2.77576,4.78121
47,58,-2.74412,4.83738
48,58,-2.70839,4.89341
49,58,-2.66824,4.94926
50,58,-2.62333,5.0049
51,58,-2.57329,5.0603
52,58,-2.51776,5.11542
53,58,-2.45642,5.17022
54,58,-2.389,5.22467
55,58,-2.31543,5.27873
56,58,-2.23595,5.33236
57,58,-2.15139,5.38553
58,58,-2.06352,5.43819
59,58,-1.97568,5.49032
60,58,-1.89351,5.54187
61,58,-1.82573,5.5928
62,58,-1.78429,5.64307
63,58,-1.78272,5.69265
1,59,-2.21333,2.55359
2,59,-2.25194,2.59379
3,59,-2.28984,2.6346
4,59,-2.32703,2.67603
5,59,-2.36348,2.71807
6,59,-2.39917,2.76071
7,59,-2.43408,2.80396
8,59,-2.46819,2.84781
9,59,-2.50147,2.89226
10,59,-2.53392,2.9373
11,59,-2.56549,2.98293
12,59,-2.59618,3.02914
13,59,-2.62596,3.07593
14,59,-2.6548,3.12328
15,59,-2.68269,3.1712
16,59,-2.70959,3.21967
17,59,-2.73548,3.26868
18,59,-2.76033,3.31823
19,59,-2.78412,3.3683
20,59,-2.80681,3.41888
21,59,-2.82838,3.46996
22,59,-2.84879,3.52153
23,59,-2.86801,3.57357
24,59,-2.886,3.62606
25,59,-2.90272,3.679
26,59,-2.91814,3.73237
27,59,-2.9322,3.78614
28,59,-2.94486,3.8403
29,59,-2.95606,3.89484
30,59,-2.96576,3.94973
31,59,-2.97388,4.00495
32,59,-2.98037,4.06048
33,59,-2.98514,4.1163
34,59,-2.98812,4.17238
35,59,-2.98922,4.2287
36,59,-2.98835,4.28524
37,59,-2.98539,4.34198
38,59,-2.98023,4.39887
39,59,-2.97273,4.4559
40,59,-2.96274,4.51305
41,59,-2.95011,4.57027
42,59,-2.93464,4.62754
43,59,-2.91613,4.68483
44,59,-2.89435,4.74211
45,59,-2.86903,4.79935
46,59,-2.83986,4.85651
47,59,-2.80653,4.91356
48,59,-2.76863,4.97047
49,59,-2.72575,5.0272
50,59,-2.67739,5.08372
51,59,-2.623,5.13999
52,59,-2.562,5.19597
53,59,-2.49371,5.25164
54,59,-2.41749,5.30694
55,59,-2.33269,5.36185
56,59,-2.23889,5.41633
57,59,-2.13604,5.47034
58,59,-2.02501,5.52383
59,59,-1.90837,5.57678
60,59,-1.79177,5.62914
61,59,-1.68586,5.68087
62,59,-1.6083,5.73194
63,59,-1.58318,5.7823
1,60,-2.25902,2.5938
2,60,-2.29826,2.63464
3,60,-2.3368,2.67609
4,60,-2.37463,2.71817
5,60,-2.41174,2.76087
6,60,-2.44809,2.80418
7,60,-2.48368,2.84811
8,60,-2.51847,2.89265
9,60,-2.55244,2.9378
10,60,-2.58558,2.98355
11,60,-2.61785,3.0299
12,60,-2.64925,3.07684
13,60,-2.67973,3.12437
14,60,-2.70929,3.17247
15,60,-2.73789,3.22114
16,60,-2.76551,3.27037
17,60,-2.79212,3.32016
18,60,-2.8177,3.37049
19,60,-2.84221,3.42134
20,60,-2.86562,3.47272
21,60,-2.88791,3.52461
22,60,-2.90904,3.57698
23,60,-2.92897,3.62984
24,60,-2.94767,3.68317
25,60,-2.96509,3.73694
26,60,-2.9812,3.79114
27,60,-2.99593,3.84576
28,60,-3.00926,3.90078
29,60,-3.02111,3.95617
30,60,-3.03143,4.01193
31,60,-3.04015,4.06802
32,60,-3.04721,4.12442
33,60,-3.05253,4.18112
34,60,-3.05602,4.23808
35,60,-3.05758,4.2953
36,60,-3.05712,4.35273
37,60,-3.05451,4.41035
38,60,-3.04963,4.46814
39,60,-3.04234,4.52607
40,60,-3.03247,4.58412
41,60,-3.01984,4.64224
42,60,-3.00424,4.70041
43,60,-2.98545,4.75861
44,60,-2.9632,4.81679
45,60,-2.93719,4.87492
46,60,-2.90706,4.93299
47,60,-2.87243,4.99094
48,60,-2.83283,5.04874
49,60,-2.78772,5.10636
50,60,-2.73648,5.16377
51,60,-2.67837,5.22093
52,60,-2.61255,5.2778
53,60,-2.53802,5.33434
54,60,-2.45364,5.39051
55,60,-2.3581,5.44629
56,60,-2.25001,5.50162
57,60,-2.12805,5.55648
58,60,-1.99131,5.61082
59,60,-1.84026,5.6646
60,60,-1.67858,5.71778
61,60,-1.51693,5.77033
62,60,-1.37918,5.8222
63,60,-1.30862,5.87336
1,61,-2.30413,2.63465
2,61,-2.344,2.67613
3,61,-2.38319,2.71824
4,61,-2.42169,2.76098
5,61,-2.45946,2.80435
6,61,-2.49649,2.84834
7,61,-2.53276,2.89297
8,61,-2.56825,2.93821
9,61,-2.60292,2.98407
10,61,-2.63677,3.03054
11,61,-2.66976,3.07762
12,61,-2.70188,3.12529
13,61,-2.7331,3.17357
14,61,-2.76339,3.22243
15,61,-2.79273,3.27186
16,61,-2.82109,3.32187
17,61,-2.84845,3.37244
18,61,-2.87478,3.42356
19,61,-2.90004,3.47522
20,61,-2.92421,3.52741
21,61,-2.94726,3.58011
22,61,-2.96914,3.63331
23,61,-2.98982,3.687
24,61,-3.00927,3.74117
25,61,-3.02744,3.79579
26,61,-3.04428,3.85084
27,61,-3.05975,3.90632
28,61,-3.0738,3.96221
29,61,-3.08636,4.01847
30,61,-3.09738,4.0751
31,61,-3.10678,4.13208
32,61,-3.1145,4.18937
33,61,-3.12045,4.24696
34,61,-3.12455,4.30482
35,61,-3.12669,4.36294
36,61,-3.12677,4.42127
37,61,-3.12466,4.47981
38,61,-3.12022,4.53851
39,61,-3.11331,4.59735
40,61,-3.10375,4.65631
41,61,-3.09135,4.71534
42,61,-3.07587,4.77443
43,61,-3.05708,4.83354
44,61,-3.03469,4.89264
45,61,-3.00835,4.95169
46,61,-2.97768,5.01067
47,61,-2.94223,5.06953
48,61,-2.90148,5.12825
49,61,-2.85479,5.18678
50,61,-2.80142,5.24509
51,61,-2.74047,5.30315
52,61,-2.67086,5.36091
53,61,-2.59126,5.41834
54,61,-2.50003,5.4754
55,61,-2.39516,5.53206
56,61,-2.27415,5.58826
57,61,-2.13399,5.64398
58,61,-1.97112,5.69918
59,61,-1.78199,5.7538
60,61,-1.56459,5.80782
61,61,-1.32335,5.8612
62,61,-1.08215,5.91389
63,61,-0.912807,5.96585
1,62,-2.34861,2.67614
2,62,-2.38913,2.71827
3,62,-2.42899,2.76104
4,62,-2.46815,2.80446
5,62,-2.50661,2.84851
6,62,-2.54434,2.8932
7,62,-2.58131,2.93852
8,62,-2.6175,2.98448
9,62,-2.6529,3.03106
10,62,-2.68747,3.07826
11,62,-2.7212,3.12608
12,62,-2.75406,3.17451
13,62,-2.78602,3.22354
14,62,-2.81707,3.27317
15,62,-2.84717,3.32339
16,62,-2.8763,3.37419
17,62,-2.90444,3.42555
18,62,-2.93154,3.47748
19,62,-2.95759,3.52995
20,62,-2.98255,3.58296
21,62,-3.00638,3.63649
22,62,-3.02906,3.69053
23,62,-3.05054,3.74507
24,62,-3.07078,3.80008
25,62,-3.08974,3.85556
26,62,-3.10738,3.91149
27,62,-3.12364,3.96784
28,62,-3.13847,4.0246
29,62,-3.15181,4.08176
30,62,-3.1636,4.13928
31,62,-3.17377,4.19715
32,62,-3.18224,4.25534
33,62,-3.18893,4.31384
34,62,-3.19374,4.37262
35,62,-3.19658,4.43164
36,62,-3.19733,4.4909
37,62,-3.19587,4.55035
38,62,-3.19204,4.60998
39,62,-3.1857,4.66975
40,62,-3.17666,4.72963
41,62,-3.16471,4.7896
42,62,-3.14964,4.84962
43,62,-3.13115,4.90966
44,62,-3.10896,4.96969
45,62,-3.0827,5.02967
46,62,-3.05196,5.08958
47,62,-3.01626,5.14936
48,62,-2.975,5.209
49,62,-2.9275,5.26846
50,62,-2.87292,5.32769
51,62,-2.81024,5.38666
52,62,-2.73818,5.44533
53,62,-2.65516,5.50367
54,62,-2.55913,5.56163
55,62,-2.44745,5.61917
56,62,-2.31658,5.67627
57,62,-2.16176,5.73286
58,62,-1.97638,5.78893
59,62,-1.7512,5.84441
60,62,-1.47366,5.89928
61,62,-1.129,5.9535
62,62,-0.712565,6.00702
63,62,-0.296162,6.0598
1,63,-2.39244,2.71828
2,63,-2.43362,2.76107
3,63,-2.47416,2.80452
4,63,-2.51401,2.84862
5,63,-2.55316,2.89337
6,63,-2.5916,2.93876
7,63,-2.62928,2.9848
8,63,-2.6662,3.03148
9,63,-2.70233,3.07879
10,63,-2.73765,3.12674
11,63,-2.77213,3.17531
12,63,-2.80575,3.2245
13,63,-2.83848,3.27431
14,63,-2.87031,3.32472
15,63,-2.9012,3.37573
16,63,-2.93112,3.42732
17,63,-2.96006,3.4795
18,63,-2.98797,3.53224
19,63,-3.01483,3.58554
20,63,-3.04061,3.63938
21,63,-3.06527,3.69376
22,63,-3.08878,3.74865
23,63,-3.1111,3.80404
24,63,-3.13218,3.85992
25,63,-3.15198,3.91628
26,63,-3.17047,3.97308
27,63,-3.18757,4.03032
28,63,-3.20325,4.08798
29,63,-3.21744,4.14603
30,63,-3.23008,4.20446
31,63,-3.2411,4.26324
32,63,-3.25041,4.32236
33,63,-3.25794,4.38177
34,63,-3.26359,4.44147
35,63,-3.26726,4.50143
36,63,-3.26882,4.56162
37,63,-3.26815,4.62201
38,63,-3.26511,4.68257
39,63,-3.25953,4.74329
40,63,-3.25123,4.80411
41,63,-3.24,4.86502
42,63,-3.22559,4.92599
43,63,-3.20774,4.98698
44,63,-3.18613,5.04795
45,63,-3.16039,5.10888
46,63,-3.13009,5.16972
47,63,-3.09472,5.23046
48,63,-3.05367,5.29103
49,63,-3.00622,5.35142
50,63,-2.95148,5.41159
51,63,-2.88835,5.47149
52,63,-2.81547,5.53108
53,63,-2.73109,5.59034
54,63,-2.63295,5.64921
55,63,-2.518,5.70766
56,63,-2.38208,5.76565
57,63,-2.21924,5.82314
58,63,-2.02059,5.88009
59,63,-1.77197,5.93645
60,63,-1.44907,5.99218
61,63,-1.00568,6.04725
62,63,-0.342212,6.10161
63,63,0.789184,6.15523
