1,1,1.03174,1.03174
2,1,1.04799,1.04799
3,1,1.06448,1.06448
4,1,1.08121,1.08121
5,1,1.0982,1.0982
6,1,1.11543,1.11543
7,1,1.1329,1.1329
8,1,1.15062,1.15062
9,1,1.16858,1.16858
10,1,1.18678,1.18678
11,1,1.20521,1.20521
12,1,1.22388,1.22388
13,1,1.24279,1.24279
14,1,1.26192,1.26192
15,1,1.28128,1.28128
16,1,1.30086,1.30086
17,1,1.32067,1.32067
18,1,1.34069,1.34069
19,1,1.36092,1.36092
20,1,1.38135,1.38135
21,1,1.40199,1.40199
22,1,1.42283,1.42283
23,1,1.44385,1.44385
24,1,1.46506,1.46506
25,1,1.48645,1.48645
26,1,1.50801,1.50801
27,1,1.52974,1.52974
28,1,1.55162,1.55162
29,1,1.57366,1.57366
30,1,1.59583,1.59583
31,1,1.61814,1.61814
32,1,1.64058,1.64058
33,1,1.66313,1.66313
34,1,1.68579,1.68579
35,1,1.70855,1.70855
36,1,1.73139,1.7314
37,1,1.75432,1.75432
38,1,1.7773,1.7773
39,1,1.80035,1.80035
40,1,1.82343,1.82344
41,1,1.84655,1.84655
42,1,1.86969,1.86969
43,1,1.89284,1.89284
44,1,1.91599,1.91599
45,1,1.93911,1.93911
46,1,1.96221,1.96221
47,1,1.98526,1.98526
48,1,2.00825,2.00825
49,1,2.03117,2.03117
50,1,2.05401,2.05401
51,1,2.07674,2.07674
52,1,2.09936,2.09936
53,1,2.12185,2.12185
54,1,2.1442,2.1442
55,1,2.16638,2.16638
56,1,2.1884,2.1884
57,1,2.21022,2.21022
58,1,2.23183,2.23183
59,1,2.25322,2.25322
60,1,2.27438,2.27438
61,1,2.29528,2.29528
62,1,2.31591,2.31591
63,1,2.33626,2.33626
1,2,1.04799,1.04799
2,2,1.06449,1.06449
3,2,1.08124,1.08124
4,2,1.09824,1.09824
5,2,1.11549,1.11549
6,2,1.13299,1.13299
7,2,1.15074,1.15074
8,2,1.16874,1.16874
9,2,1.18698,1.18698
10,2,1.20546,1.20546
11,2,1.22419,1.22419
12,2,1.24316,1.24316
13,2,1.26236,1.26236
14,2,1.28179,1.28179
15,2,1.30146,1.30146
16,2,1.32135,1.32135
17,2,1.34146,1.34147
18,2,1.3618,1.3618
19,2,1.38235,1.38235
20,2,1.40311,1.40311
21,2,1.42407,1.42407
22,2,1.44523,1.44523
23,2,1.46659,1.46659
24,2,1.48813,1.48813
25,2,1.50986,1.50986
26,2,1.53176,1.53176
27,2,1.55383,1.55383
28,2,1.57606,1.57606
29,2,1.59844,1.59844
30,2,1.62096,1.62096
31,2,1.64363,1.64363
32,2,1.66642,1.66642
33,2,1.68932,1.68932
34,2,1.71234,1.71234
35,2,1.73546,1.73546
36,2,1.75866,1.75866
37,2,1.78194,1.78194
38,2,1.80529,1.80529
39,2,1.8287,1.8287
40,2,1.85215,1.85215
41,2,1.87563,1.87563
42,2,1.89914,1.89914
43,2,1.92265,1.92265
44,2,1.94616,1.94616
45,2,1.96965,1.96965
46,2,1.99311,1.99311
47,2,2.01652,2.01652
48,2,2.03987,2.03988
49,2,2.06316,2.06316
50,2,2.08635,2.08635
51,2,2.10945,2.10945
52,2,2.13242,2.13242
53,2,2.15527,2.15527
54,2,2.17796,2.17796
55,2,2.2005,2.2005
56,2,2.22286,2.22286
57,2,2.24502,2.24502
58,2,2.26698,2.26698
59,2,2.2887,2.2887
60,2,2.31019,2.31019
61,2,2.33142,2.33142
62,2,2.35238,2.35238
63,2,2.37305,2.37305
1,3,1.06449,1.06449
2,3,1.08125,1.08125
3,3,1.09827,1.09827
4,3,1.11553,1.11554
5,3,1.13306,1.13306
6,3,1.15083,1.15083
7,3,1.16886,1.16886
8,3,1.18714,1.18714
9,3,1.20567,1.20567
10,3,1.22445,1.22445
11,3,1.24347,1.24347
12,3,1.26273,1.26273
13,3,1.28224,1.28224
14,3,1.30198,1.30198
15,3,1.32195,1.32195
16,3,1.34216,1.34216
17,3,1.36259,1.36259
18,3,1.38324,1.38324
19,3,1.40412,1.40412
20,3,1.4252,1.4252
21,3,1.44649,1.4465
22,3,1.46799,1.46799
23,3,1.48968,1.48968
24,3,1.51157,1.51157
25,3,1.53363,1.53364
26,3,1.55588,1.55588
27,3,1.5783,1.5783
28,3,1.60088,1.60088
29,3,1.62361,1.62361
30,3,1.64649,1.64649
31,3,1.66951,1.66951
32,3,1.69266,1.69266
33,3,1.71593,1.71593
34,3,1.73931,1.73931
35,3,1.76278,1.76279
36,3,1.78635,1.78636
37,3,1.81,1.81
38,3,1.83372,1.83372
39,3,1.8575,1.8575
40,3,1.88132,1.88132
41,3,1.90517,1.90517
42,3,1.92904,1.92905
43,3,1.95293,1.95293
44,3,1.9768,1.97681
45,3,2.00066,2.00067
46,3,2.02449,2.02449
47,3,2.04827,2.04828
48,3,2.072,2.072
49,3,2.09565,2.09565
50,3,2.11921,2.11921
51,3,2.14266,2.14267
52,3,2.166,2.166
53,3,2.18921,2.18921
54,3,2.21226,2.21226
55,3,2.23515,2.23515
56,3,2.25786,2.25786
57,3,2.28037,2.28038
58,3,2.30268,2.30268
59,3,2.32475,2.32475
60,3,2.34657,2.34657
61,3,2.36814,2.36814
62,3,2.38943,2.38943
63,3,2.41042,2.41042
1,4,1.08126,1.08126
2,4,1.09828,1.09828
3,4,1.11556,1.11556
4,4,1.1331,1.1331
5,4,1.1509,1.1509
6,4,1.16896,1.16896
7,4,1.18727,1.18727
8,4,1.20584,1.20584
9,4,1.22466,1.22466
10,4,1.24373,1.24373
11,4,1.26305,1.26305
12,4,1.28262,1.28262
13,4,1.30243,1.30243
14,4,1.32248,1.32248
15,4,1.34277,1.34277
16,4,1.36329,1.36329
17,4,1.38405,1.38405
18,4,1.40503,1.40503
19,4,1.42623,1.42623
20,4,1.44764,1.44765
21,4,1.46927,1.46927
22,4,1.49111,1.49111
23,4,1.51314,1.51314
24,4,1.53537,1.53537
25,4,1.55779,1.55779
26,4,1.58038,1.58038
27,4,1.60315,1.60315
28,4,1.62608,1.62609
29,4,1.64918,1.64918
30,4,1.67242,1.67242
31,4,1.6958,1.6958
32,4,1.71931,1.71931
33,4,1.74295,1.74295
34,4,1.76669,1.7667
35,4,1.79054,1.79055
36,4,1.81449,1.81449
37,4,1.83851,1.83851
38,4,1.8626,1.8626
39,4,1.88675,1.88675
40,4,1.91094,1.91094
41,4,1.93517,1.93517
42,4,1.95942,1.95942
43,4,1.98368,1.98368
44,4,2.00793,2.00794
45,4,2.03217,2.03217
46,4,2.05637,2.05637
47,4,2.08053,2.08053
48,4,2.10463,2.10463
49,4,2.12865,2.12865
50,4,2.15258,2.15258
51,4,2.17641,2.17641
52,4,2.20011,2.20011
53,4,2.22368,2.22368
54,4,2.2471,2.2471
55,4,2.27035,2.27035
56,4,2.29342,2.29342
57,4,2.31629,2.31629
58,4,2.33894,2.33894
59,4,2.36136,2.36136
60,4,2.38353,2.38353
61,4,2.40543,2.40543
62,4,2.42705,2.42705
63,4,2.44838,2.44838
1,5,1.09828,1.09828
2,5,1.11557,1.11557
3,5,1.13313,1.13313
4,5,1.15095,1.15095
5,5,1.16902,1.16903
6,5,1.18737,1.18737
7,5,1.20597,1.20597
8,5,1.22483,1.22483
9,5,1.24394,1.24394
10,5,1.26331,1.26332
11,5,1.28294,1.28294
12,5,1.30281,1.30282
13,5,1.32294,1.32294
14,5,1.34331,1.34331
15,5,1.36391,1.36392
16,5,1.38476,1.38476
17,5,1.40584,1.40584
18,5,1.42715,1.42715
19,5,1.44869,1.44869
20,5,1.47044,1.47044
21,5,1.49241,1.49241
22,5,1.51459,1.51459
23,5,1.53697,1.53697
24,5,1.55955,1.55955
25,5,1.58232,1.58232
26,5,1.60527,1.60527
27,5,1.6284,1.6284
28,5,1.65169,1.65169
29,5,1.67515,1.67515
30,5,1.69875,1.69876
31,5,1.7225,1.72251
32,5,1.74639,1.74639
33,5,1.77039,1.7704
34,5,1.79452,1.79452
35,5,1.81874,1.81874
36,5,1.84306,1.84306
37,5,1.86746,1.86746
38,5,1.89193,1.89193
39,5,1.91646,1.91646
40,5,1.94103,1.94104
41,5,1.96565,1.96565
42,5,1.99028,1.99028
43,5,2.01492,2.01492
44,5,2.03955,2.03956
45,5,2.06417,2.06417
46,5,2.08876,2.08876
47,5,2.11329,2.1133
48,5,2.13777,2.13777
49,5,2.16217,2.16217
50,5,2.18648,2.18648
51,5,2.21068,2.21068
52,5,2.23476,2.23476
53,5,2.2587,2.2587
54,5,2.28249,2.28249
55,5,2.3061,2.3061
56,5,2.32953,2.32953
57,5,2.35276,2.35276
58,5,2.37577,2.37577
59,5,2.39854,2.39854
60,5,2.42106,2.42106
61,5,2.44331,2.44331
62,5,2.46528,2.46528
63,5,2.48694,2.48694
1,6,1.11558,1.11558
2,6,1.13314,1.13314
3,6,1.15097,1.15097
4,6,1.16907,1.16907
5,6,1.18743,1.18744
6,6,1.20606,1.20606
7,6,1.22496,1.22496
8,6,1.24411,1.24412
9,6,1.26353,1.26353
10,6,1.28321,1.28321
11,6,1.30314,1.30314
12,6,1.32333,1.32333
13,6,1.34377,1.34377
14,6,1.36446,1.36446
15,6,1.38539,1.38539
16,6,1.40657,1.40657
17,6,1.42798,1.42798
18,6,1.44963,1.44963
19,6,1.4715,1.4715
20,6,1.4936,1.4936
21,6,1.51591,1.51591
22,6,1.53844,1.53844
23,6,1.56117,1.56118
24,6,1.58411,1.58411
25,6,1.60723,1.60724
26,6,1.63055,1.63055
27,6,1.65404,1.65404
28,6,1.6777,1.6777
29,6,1.70153,1.70153
30,6,1.72551,1.72551
31,6,1.74963,1.74963
32,6,1.77389,1.77389
33,6,1.79827,1.79828
34,6,1.82277,1.82278
35,6,1.84738,1.84738
36,6,1.87208,1.87208
37,6,1.89687,1.89687
38,6,1.92172,1.92172
39,6,1.94664,1.94664
40,6,1.9716,1.9716
41,6,1.9966,1.9966
42,6,2.02162,2.02162
43,6,2.04665,2.04665
44,6,2.07167,2.07167
45,6,2.09668,2.09668
46,6,2.12165,2.12165
47,6,2.14657,2.14657
48,6,2.17143,2.17144
49,6,2.19622,2.19622
50,6,2.22091,2.22091
51,6,2.24549,2.24549
52,6,2.26995,2.26995
53,6,2.29427,2.29427
54,6,2.31843,2.31843
55,6,2.34242,2.34242
56,6,2.36622,2.36622
57,6,2.38981,2.38981
58,6,2.41318,2.41318
59,6,2.43631,2.43631
60,6,2.45919,2.45919
61,6,2.48179,2.48179
62,6,2.5041,2.5041
63,6,2.5261,2.5261
1,7,1.13315,1.13315
2,7,1.15099,1.15099
3,7,1.1691,1.1691
4,7,1.18748,1.18748
5,7,1.20613,1.20613
6,7,1.22506,1.22506
7,7,1.24425,1.24425
8,7,1.26371,1.26371
9,7,1.28343,1.28343
10,7,1.30342,1.30342
11,7,1.32366,1.32367
12,7,1.34417,1.34417
13,7,1.36493,1.36493
14,7,1.38595,1.38595
15,7,1.40721,1.40721
16,7,1.42872,1.42872
17,7,1.45047,1.45047
18,7,1.47245,1.47246
19,7,1.49467,1.49467
20,7,1.51712,1.51712
21,7,1.53978,1.53979
22,7,1.56267,1.56267
23,7,1.58576,1.58576
24,7,1.60905,1.60906
25,7,1.63254,1.63255
26,7,1.65622,1.65623
27,7,1.68009,1.68009
28,7,1.70412,1.70412
29,7,1.72832,1.72832
30,7,1.75268,1.75268
31,7,1.77718,1.77718
32,7,1.80182,1.80183
33,7,1.82659,1.8266
34,7,1.85148,1.85148
35,7,1.87647,1.87648
36,7,1.90156,1.90157
37,7,1.92674,1.92674
38,7,1.95198,1.95199
39,7,1.97729,1.9773
40,7,2.00265,2.00265
41,7,2.02804,2.02804
42,7,2.05346,2.05346
43,7,2.07888,2.07888
44,7,2.1043,2.1043
45,7,2.12969,2.1297
46,7,2.15506,2.15506
47,7,2.18038,2.18038
48,7,2.20563,2.20563
49,7,2.2308,2.23081
50,7,2.25588,2.25589
51,7,2.28085,2.28086
52,7,2.3057,2.3057
53,7,2.3304,2.3304
54,7,2.35494,2.35494
55,7,2.37931,2.37931
56,7,2.40348,2.40348
57,7,2.42745,2.42745
58,7,2.45118,2.45119
59,7,2.47468,2.47468
60,7,2.49791,2.49791
61,7,2.52087,2.52087
62,7,2.54353,2.54353
63,7,2.56588,2.56588
1,8,1.15099,1.15099
2,8,1.16911,1.16911
3,8,1.18751,1.18751
4,8,1.20618,1.20618
5,8,1.22513,1.22513
6,8,1.24435,1.24435
7,8,1.26384,1.26384
8,8,1.28361,1.28361
9,8,1.30364,1.30364
10,8,1.32394,1.32394
11,8,1.34451,1.34451
12,8,1.36534,1.36534
13,8,1.38643,1.38643
14,8,1.40777,1.40777
15,8,1.42937,1.42937
16,8,1.45122,1.45122
17,8,1.47331,1.47331
18,8,1.49564,1.49564
19,8,1.51821,1.51821
20,8,1.54101,1.54101
21,8,1.56403,1.56403
22,8,1.58727,1.58728
23,8,1.61073,1.61073
24,8,1.63439,1.63439
25,8,1.65825,1.65826
26,8,1.68231,1.68231
27,8,1.70654,1.70655
28,8,1.73096,1.73096
29,8,1.75554,1.75554
30,8,1.78028,1.78028
31,8,1.80517,1.80517
32,8,1.8302,1.8302
33,8,1.85536,1.85536
34,8,1.88064,1.88064
35,8,1.90602,1.90603
36,8,1.93151,1.93151
37,8,1.95708,1.95708
38,8,1.98272,1.98273
39,8,2.00843,2.00843
40,8,2.03419,2.03419
41,8,2.05998,2.05998
42,8,2.08579,2.08579
43,8,2.11162,2.11162
44,8,2.13743,2.13744
45,8,2.16323,2.16323
46,8,2.189,2.189
47,8,2.21471,2.21471
48,8,2.24036,2.24036
49,8,2.26593,2.26594
50,8,2.29141,2.29141
51,8,2.31677,2.31677
52,8,2.34201,2.34201
53,8,2.3671,2.3671
54,8,2.39203,2.39203
55,8,2.41678,2.41678
56,8,2.44133,2.44133
57,8,2.46567,2.46567
58,8,2.48979,2.48979
59,8,2.51365,2.51365
60,8,2.53725,2.53725
61,8,2.56057,2.56057
62,8,2.58359,2.58359
63,8,2.60629,2.60629
1,9,1.16912,1.16912
2,9,1.18752,1.18752
3,9,1.20621,1.20621
4,9,1.22517,1.22518
5,9,1.24442,1.24442
6,9,1.26394,1.26394
7,9,1.28374,1.28375
8,9,1.30382,1.30382
9,9,1.32417,1.32417
10,9,1.34479,1.34479
11,9,1.36568,1.36568
12,9,1.38684,1.38684
13,9,1.40826,1.40826
14,9,1.42994,1.42994
15,9,1.45188,1.45188
16,9,1.47407,1.47407
17,9,1.49651,1.49651
18,9,1.51919,1.5192
19,9,1.54212,1.54212
20,9,1.56527,1.56528
21,9,1.58866,1.58866
22,9,1.61227,1.61227
23,9,1.63609,1.6361
24,9,1.66013,1.66013
25,9,1.68437,1.68437
26,9,1.7088,1.7088
27,9,1.73342,1.73342
28,9,1.75822,1.75822
29,9,1.78318,1.78319
30,9,1.80831,1.80832
31,9,1.83359,1.8336
32,9,1.85902,1.85902
33,9,1.88457,1.88458
34,9,1.91025,1.91025
35,9,1.93604,1.93604
36,9,1.96192,1.96193
37,9,1.9879,1.9879
38,9,2.01395,2.01395
39,9,2.04006,2.04006
40,9,2.06622,2.06622
41,9,2.09242,2.09242
42,9,2.11864,2.11864
43,9,2.14487,2.14487
44,9,2.17109,2.1711
45,9,2.1973,2.1973
46,9,2.22347,2.22347
47,9,2.24959,2.24959
48,9,2.27564,2.27565
49,9,2.30162,2.30162
50,9,2.32749,2.32749
51,9,2.35326,2.35326
52,9,2.37889,2.37889
53,9,2.40437,2.40437
54,9,2.42969,2.4297
55,9,2.45483,2.45484
56,9,2.47978,2.47978
57,9,2.5045,2.5045
58,9,2.52899,2.52899
59,9,2.55323,2.55323
60,9,2.57721,2.57721
61,9,2.60089,2.60089
62,9,2.62427,2.62427
63,9,2.64733,2.64733
1,10,1.18753,1.18753
2,10,1.20622,1.20622
3,10,1.2252,1.2252
4,10,1.24447,1.24447
5,10,1.26402,1.26402
6,10,1.28385,1.28385
7,10,1.30396,1.30396
8,10,1.32435,1.32435
9,10,1.34502,1.34502
10,10,1.36597,1.36597
11,10,1.38719,1.38719
12,10,1.40868,1.40868
13,10,1.43044,1.43044
14,10,1.45246,1.45246
15,10,1.47474,1.47475
16,10,1.49728,1.49729
17,10,1.52008,1.52008
18,10,1.54312,1.54312
19,10,1.5664,1.56641
20,10,1.58992,1.58993
21,10,1.61368,1.61368
22,10,1.63766,1.63766
23,10,1.66186,1.66186
24,10,1.68627,1.68628
25,10,1.71089,1.71089
26,10,1.73571,1.73571
27,10,1.76071,1.76072
28,10,1.7859,1.78591
29,10,1.81126,1.81127
30,10,1.83679,1.83679
31,10,1.86247,1.86247
32,10,1.88829,1.8883
33,10,1.91425,1.91426
34,10,1.94033,1.94034
35,10,1.96653,1.96653
36,10,1.99282,1.99282
37,10,2.0192,2.01921
38,10,2.04566,2.04567
39,10,2.07218,2.07219
40,10,2.09876,2.09876
41,10,2.12537,2.12537
42,10,2.152,2.15201
43,10,2.17865,2.17865
44,10,2.20528,2.20529
45,10,2.2319,2.2319
46,10,2.25848,2.25849
47,10,2.28501,2.28502
48,10,2.31148,2.31148
49,10,2.33786,2.33786
50,10,2.36415,2.36415
51,10,2.39031,2.39032
52,10,2.41635,2.41635
53,10,2.44224,2.44224
54,10,2.46796,2.46796
55,10,2.49349,2.49349
56,10,2.51883,2.51883
57,10,2.54394,2.54394
58,10,2.56882,2.56882
59,10,2.59344,2.59344
60,10,2.61779,2.61779
61,10,2.64185,2.64185
62,10,2.6656,2.6656
63,10,2.68902,2.68902
1,11,1.20623,1.20623
2,11,1.22522,1.22522
3,11,1.2445,1.2445
4,11,1.26407,1.26407
5,11,1.28392,1.28392
6,11,1.30407,1.30407
7,11,1.32449,1.3245
8,11,1.34521,1.34521
9,11,1.3662,1.36621
10,11,1.38748,1.38748
11,11,1.40903,1.40903
12,11,1.43086,1.43086
13,11,1.45296,1.45296
14,11,1.47533,1.47533
15,11,1.49797,1.49797
16,11,1.52086,1.52086
17,11,1.54401,1.54402
18,11,1.56742,1.56742
19,11,1.59107,1.59107
20,11,1.61496,1.61497
21,11,1.63909,1.63909
22,11,1.66345,1.66345
23,11,1.68803,1.68803
24,11,1.71283,1.71283
25,11,1.73783,1.73784
26,11,1.76304,1.76304
27,11,1.78844,1.78845
28,11,1.81403,1.81403
29,11,1.83979,1.83979
30,11,1.86571,1.86572
31,11,1.8918,1.8918
32,11,1.91803,1.91803
33,11,1.9444,1.9444
34,11,1.97089,1.97089
35,11,1.99749,1.9975
36,11,2.0242,2.02421
37,11,2.051,2.051
38,11,2.07788,2.07788
39,11,2.10482,2.10482
40,11,2.13181,2.13181
41,11,2.15884,2.15884
42,11,2.18589,2.18589
43,11,2.21295,2.21296
44,11,2.24001,2.24001
45,11,2.26705,2.26705
46,11,2.29405,2.29405
47,11,2.321,2.321
48,11,2.34788,2.34788
49,11,2.37468,2.37468
50,11,2.40138,2.40138
51,11,2.42796,2.42796
52,11,2.4544,2.4544
53,11,2.4807,2.4807
54,11,2.50682,2.50682
55,11,2.53276,2.53276
56,11,2.55849,2.55849
57,11,2.584,2.584
58,11,2.60927,2.60927
59,11,2.63428,2.63428
60,11,2.65902,2.65902
61,11,2.68345,2.68345
62,11,2.70757,2.70758
63,11,2.73136,2.73136
1,12,1.22522,1.22522
2,12,1.24451,1.24451
3,12,1.2641,1.2641
4,12,1.28397,1.28397
5,12,1.30414,1.30414
6,12,1.3246,1.3246
7,12,1.34535,1.34535
8,12,1.36639,1.36639
9,12,1.38772,1.38772
10,12,1.40933,1.40933
11,12,1.43122,1.43122
12,12,1.45339,1.4534
13,12,1.47584,1.47585
14,12,1.49856,1.49857
15,12,1.52155,1.52156
16,12,1.54481,1.54481
17,12,1.56833,1.56833
18,12,1.5921,1.5921
19,12,1.61612,1.61613
20,12,1.64039,1.6404
21,12,1.6649,1.66491
22,12,1.68964,1.68965
23,12,1.71461,1.71462
24,12,1.7398,1.7398
25,12,1.7652,1.7652
26,12,1.7908,1.79081
27,12,1.8166,1.81661
28,12,1.84259,1.8426
29,12,1.86876,1.86876
30,12,1.8951,1.8951
31,12,1.92159,1.92159
32,12,1.94823,1.94824
33,12,1.97502,1.97502
34,12,2.00192,2.00193
35,12,2.02895,2.02895
36,12,2.05608,2.05608
37,12,2.0833,2.0833
38,12,2.1106,2.1106
39,12,2.13796,2.13797
40,12,2.16538,2.16538
41,12,2.19283,2.19284
42,12,2.22031,2.22032
43,12,2.2478,2.24781
44,12,2.27529,2.27529
45,12,2.30275,2.30275
46,12,2.33017,2.33018
47,12,2.35755,2.35755
48,12,2.38485,2.38486
49,12,2.41207,2.41208
50,12,2.43919,2.43919
51,12,2.46619,2.46619
52,12,2.49305,2.49305
53,12,2.51976,2.51976
54,12,2.5463,2.5463
55,12,2.57264,2.57265
56,12,2.59878,2.59878
57,12,2.62469,2.6247
58,12,2.65036,2.65036
59,12,2.67577,2.67577
60,12,2.70089,2.70089
61,12,2.72571,2.72571
62,12,2.75021,2.75021
63,12,2.77438,2.77438
1,13,1.24452,1.24452
2,13,1.26411,1.26411
3,13,1.284,1.284
4,13,1.30419,1.30419
5,13,1.32468,1.32468
6,13,1.34546,1.34546
7,13,1.36654,1.36654
8,13,1.38791,1.38791
9,13,1.40957,1.40957
10,13,1.43152,1.43152
11,13,1.45376,1.45376
12,13,1.47628,1.47628
13,13,1.49908,1.49909
14,13,1.52216,1.52217
15,13,1.54552,1.54552
16,13,1.56914,1.56914
17,13,1.59303,1.59303
18,13,1.61717,1.61718
19,13,1.64157,1.64158
20,13,1.66623,1.66623
21,13,1.69112,1.69112
22,13,1.71625,1.71626
23,13,1.74161,1.74162
24,13,1.7672,1.7672
25,13,1.793,1.793
26,13,1.819,1.81901
27,13,1.84521,1.84522
28,13,1.87161,1.87161
29,13,1.89819,1.89819
30,13,1.92494,1.92494
31,13,1.95185,1.95186
32,13,1.97891,1.97892
33,13,2.00612,2.00612
34,13,2.03345,2.03346
35,13,2.0609,2.06091
36,13,2.08846,2.08846
37,13,2.11611,2.11611
38,13,2.14383,2.14384
39,13,2.17163,2.17163
40,13,2.19948,2.19948
41,13,2.22737,2.22737
42,13,2.25528,2.25528
43,13,2.2832,2.2832
44,13,2.31112,2.31112
45,13,2.33901,2.33901
46,13,2.36687,2.36687
47,13,2.39467,2.39468
48,13,2.42241,2.42241
49,13,2.45006,2.45006
50,13,2.4776,2.47761
51,13,2.50503,2.50503
52,13,2.53231,2.53231
53,13,2.55944,2.55944
54,13,2.5864,2.5864
55,13,2.61316,2.61316
56,13,2.63971,2.63971
57,13,2.66603,2.66603
58,13,2.6921,2.6921
59,13,2.7179,2.7179
60,13,2.74342,2.74342
61,13,2.76863,2.76863
62,13,2.79352,2.79352
63,13,2.81807,2.81807
1,14,1.26412,1.26412
2,14,1.28402,1.28402
3,14,1.30422,1.30422
4,14,1.32473,1.32473
5,14,1.34554,1.34554
6,14,1.36665,1.36665
7,14,1.38806,1.38806
8,14,1.40976,1.40977
9,14,1.43177,1.43177
10,14,1.45406,1.45407
11,14,1.47665,1.47666
12,14,1.49953,1.49953
13,14,1.52269,1.52269
14,14,1.54613,1.54614
15,14,1.56985,1.56986
16,14,1.59385,1.59385
17,14,1.61811,1.61812
18,14,1.64264,1.64264
19,14,1.66743,1.66743
20,14,1.69246,1.69247
21,14,1.71775,1.71776
22,14,1.74328,1.74328
23,14,1.76904,1.76904
24,14,1.79503,1.79503
25,14,1.82123,1.82124
26,14,1.84765,1.84766
27,14,1.87427,1.87427
28,14,1.90108,1.90109
29,14,1.92808,1.92809
30,14,1.95525,1.95526
31,14,1.98259,1.98259
32,14,2.01008,2.01008
33,14,2.03771,2.03771
34,14,2.06547,2.06548
35,14,2.09336,2.09336
36,14,2.12135,2.12135
37,14,2.14943,2.14943
38,14,2.17759,2.1776
39,14,2.20583,2.20583
40,14,2.23412,2.23412
41,14,2.26244,2.26245
42,14,2.29079,2.2908
43,14,2.31915,2.31916
44,14,2.34751,2.34751
45,14,2.37584,2.37585
46,14,2.40414,2.40415
47,14,2.43238,2.43239
48,14,2.46056,2.46056
49,14,2.48864,2.48864
50,14,2.51662,2.51662
51,14,2.54448,2.54448
52,14,2.57219,2.57219
53,14,2.59975,2.59975
54,14,2.62713,2.62713
55,14,2.65431,2.65431
56,14,2.68128,2.68128
57,14,2.70801,2.70801
58,14,2.73449,2.73449
59,14,2.7607,2.76071
60,14,2.78662,2.78662
61,14,2.81223,2.81223
62,14,2.83751,2.83751
63,14,2.86245,2.86245
1,15,1.28402,1.28402
2,15,1.30424,1.30424
3,15,1.32476,1.32476
4,15,1.34559,1.34559
5,15,1.36673,1.36673
6,15,1.38817,1.38817
7,15,1.40992,1.40992
8,15,1.43197,1.43197
9,15,1.45431,1.45432
10,15,1.47696,1.47697
11,15,1.49991,1.49991
12,15,1.52314,1.52315
13,15,1.54667,1.54667
14,15,1.57048,1.57049
15,15,1.59458,1.59458
16,15,1.61895,1.61895
17,15,1.64359,1.6436
18,15,1.66851,1.66851
19,15,1.69368,1.69369
20,15,1.71912,1.71912
21,15,1.7448,1.74481
22,15,1.77073,1.77074
23,15,1.7969,1.7969
24,15,1.82329,1.8233
25,15,1.84991,1.84992
26,15,1.87675,1.87675
27,15,1.90378,1.90379
28,15,1.93102,1.93103
29,15,1.95844,1.95845
30,15,1.98604,1.98605
31,15,2.01381,2.01381
32,15,2.04173,2.04174
33,15,2.0698,2.0698
34,15,2.098,2.098
35,15,2.12632,2.12633
36,15,2.15475,2.15476
37,15,2.18328,2.18328
38,15,2.21189,2.21189
39,15,2.24056,2.24057
40,15,2.2693,2.2693
41,15,2.29807,2.29807
42,15,2.32687,2.32687
43,15,2.35568,2.35568
44,15,2.38448,2.38448
45,15,2.41326,2.41326
46,15,2.442,2.442
47,15,2.47069,2.47069
48,15,2.4993,2.49931
49,15,2.52783,2.52783
50,15,2.55625,2.55625
51,15,2.58454,2.58455
52,15,2.6127,2.6127
53,15,2.64069,2.64069
54,15,2.6685,2.6685
55,15,2.69611,2.69611
56,15,2.7235,2.7235
57,15,2.75066,2.75066
58,15,2.77756,2.77756
59,15,2.80418,2.80418
60,15,2.83051,2.83051
61,15,2.85652,2.85652
62,15,2.8822,2.8822
63,15,2.90752,2.90752
1,16,1.30424,1.30425
2,16,1.32478,1.32478
3,16,1.34562,1.34562
4,16,1.36678,1.36678
5,16,1.38825,1.38825
6,16,1.41003,1.41003
7,16,1.43212,1.43212
8,16,1.45452,1.45452
9,16,1.47722,1.47722
10,16,1.50022,1.50022
11,16,1.52353,1.52353
12,16,1.54713,1.54713
13,16,1.57103,1.57103
14,16,1.59521,1.59522
15,16,1.61969,1.61969
16,16,1.64444,1.64445
17,16,1.66948,1.66948
18,16,1.69478,1.69479
19,16,1.72035,1.72036
20,16,1.74619,1.74619
21,16,1.77228,1.77228
22,16,1.79862,1.79862
23,16,1.82519,1.8252
24,16,1.85201,1.85201
25,16,1.87904,1.87905
26,16,1.9063,1.90631
27,16,1.93376,1.93377
28,16,1.96143,1.96143
29,16,1.98928,1.98929
30,16,2.01732,2.01732
31,16,2.04552,2.04553
32,16,2.07388,2.07389
33,16,2.10239,2.1024
34,16,2.13104,2.13104
35,16,2.15981,2.15981
36,16,2.18868,2.18869
37,16,2.21766,2.21766
38,16,2.24672,2.24672
39,16,2.27585,2.27585
40,16,2.30503,2.30504
41,16,2.33426,2.33426
42,16,2.36351,2.36352
43,16,2.39277,2.39278
44,16,2.42203,2.42203
45,16,2.45126,2.45127
46,16,2.48046,2.48046
47,16,2.5096,2.5096
48,16,2.53866,2.53867
49,16,2.56764,2.56764
50,16,2.59651,2.59651
51,16,2.62525,2.62525
52,16,2.65384,2.65384
53,16,2.68227,2.68227
54,16,2.71052,2.71052
55,16,2.73856,2.73857
56,16,2.76639,2.76639
57,16,2.79397,2.79397
58,16,2.8213,2.8213
59,16,2.84834,2.84834
60,16,2.87508,2.87508
61,16,2.9015,2.9015
62,16,2.92759,2.92759
63,16,2.95331,2.95331
1,17,1.32478,1.32478
2,17,1.34564,1.34564
3,17,1.36681,1.36681
4,17,1.3883,1.38831
5,17,1.41011,1.41011
6,17,1.43224,1.43224
7,17,1.45467,1.45467
8,17,1.47742,1.47742
9,17,1.50048,1.50048
10,17,1.52385,1.52385
11,17,1.54752,1.54752
12,17,1.57149,1.5715
13,17,1.59577,1.59577
14,17,1.62033,1.62034
15,17,1.64519,1.6452
16,17,1.67034,1.67034
17,17,1.69577,1.69577
18,17,1.72147,1.72148
19,17,1.74745,1.74745
20,17,1.77369,1.77369
21,17,1.80019,1.80019
22,17,1.82694,1.82694
23,17,1.85394,1.85394
24,17,1.88117,1.88118
25,17,1.90863,1.90864
26,17,1.93632,1.93633
27,17,1.96422,1.96422
28,17,1.99232,1.99232
29,17,2.02061,2.02062
30,17,2.04909,2.04909
31,17,2.07773,2.07774
32,17,2.10654,2.10655
33,17,2.1355,2.13551
34,17,2.1646,2.1646
35,17,2.19382,2.19382
36,17,2.22315,2.22316
37,17,2.25258,2.25259
38,17,2.2821,2.2821
39,17,2.31169,2.31169
40,17,2.34133,2.34134
41,17,2.37102,2.37102
42,17,2.40073,2.40074
43,17,2.43045,2.43046
44,17,2.46017,2.46017
45,17,2.48986,2.48987
46,17,2.51952,2.51952
47,17,2.54912,2.54912
48,17,2.57864,2.57864
49,17,2.60807,2.60808
50,17,2.63739,2.6374
51,17,2.66659,2.66659
52,17,2.69563,2.69563
53,17,2.72451,2.72451
54,17,2.7532,2.75321
55,17,2.78169,2.78169
56,17,2.80995,2.80996
57,17,2.83797,2.83797
58,17,2.86572,2.86573
59,17,2.89319,2.89319
60,17,2.92036,2.92036
61,17,2.9472,2.9472
62,17,2.97369,2.97369
63,17,2.99982,2.99982
1,18,1.34565,1.34565
2,18,1.36683,1.36683
3,18,1.38834,1.38834
4,18,1.41017,1.41017
5,18,1.43232,1.43232
6,18,1.45479,1.45479
7,18,1.47758,1.47758
8,18,1.50069,1.50069
9,18,1.52411,1.52411
10,18,1.54784,1.54785
11,18,1.57189,1.57189
12,18,1.59624,1.59624
13,18,1.62089,1.6209
14,18,1.64585,1.64585
15,18,1.6711,1.67111
16,18,1.69664,1.69665
17,18,1.72247,1.72248
18,18,1.74858,1.74858
19,18,1.77496,1.77497
20,18,1.80162,1.80162
21,18,1.82854,1.82854
22,18,1.85571,1.85572
23,18,1.88313,1.88314
24,18,1.91079,1.9108
25,18,1.93869,1.9387
26,18,1.96681,1.96682
27,18,1.99515,1.99516
28,18,2.02369,2.0237
29,18,2.05243,2.05244
30,18,2.08135,2.08136
31,18,2.11045,2.11046
32,18,2.13971,2.13972
33,18,2.16913,2.16914
34,18,2.19868,2.19869
35,18,2.22836,2.22837
36,18,2.25816,2.25817
37,18,2.28805,2.28806
38,18,2.31804,2.31804
39,18,2.34809,2.3481
40,18,2.3782,2.37821
41,18,2.40836,2.40836
42,18,2.43854,2.43854
43,18,2.46873,2.46873
44,18,2.49891,2.49892
45,18,2.52907,2.52908
46,18,2.5592,2.5592
47,18,2.58926,2.58926
48,18,2.61925,2.61925
49,18,2.64914,2.64915
50,18,2.67893,2.67893
51,18,2.70858,2.70858
52,18,2.73808,2.73808
53,18,2.76742,2.76742
54,18,2.79656,2.79656
55,18,2.8255,2.8255
56,18,2.8542,2.85421
57,18,2.88266,2.88266
58,18,2.91085,2.91085
59,18,2.93875,2.93876
60,18,2.96635,2.96635
61,18,2.99361,2.99361
62,18,3.02052,3.02052
63,18,3.04706,3.04706
1,19,1.36684,1.36684
2,19,1.38835,1.38836
3,19,1.4102,1.4102
4,19,1.43237,1.43238
5,19,1.45487,1.45488
6,19,1.4777,1.4777
7,19,1.50085,1.50085
8,19,1.52432,1.52432
9,19,1.54811,1.54811
10,19,1.57222,1.57222
11,19,1.59664,1.59665
12,19,1.62138,1.62138
13,19,1.64642,1.64642
14,19,1.67177,1.67177
15,19,1.69742,1.69742
16,19,1.72336,1.72337
17,19,1.74959,1.7496
18,19,1.77612,1.77612
19,19,1.80292,1.80292
20,19,1.82999,1.83
21,19,1.85733,1.85734
22,19,1.88493,1.88494
23,19,1.91279,1.91279
24,19,1.94089,1.94089
25,19,1.96922,1.96923
26,19,1.99779,1.99779
27,19,2.02657,2.02657
28,19,2.05556,2.05557
29,19,2.08475,2.08476
30,19,2.11413,2.11414
31,19,2.14369,2.14369
32,19,2.17341,2.17342
33,19,2.20329,2.20329
34,19,2.23331,2.23331
35,19,2.26346,2.26346
36,19,2.29372,2.29373
37,19,2.32409,2.32409
38,19,2.35454,2.35455
39,19,2.38507,2.38507
40,19,2.41565,2.41566
41,19,2.44628,2.44629
42,19,2.47694,2.47694
43,19,2.5076,2.50761
44,19,2.53826,2.53827
45,19,2.5689,2.5689
46,19,2.5995,2.5995
47,19,2.63003,2.63004
48,19,2.6605,2.6605
49,19,2.69086,2.69087
50,19,2.72111,2.72112
51,19,2.75123,2.75124
52,19,2.7812,2.7812
53,19,2.811,2.811
54,19,2.8406,2.8406
55,19,2.86999,2.86999
56,19,2.89915,2.89915
57,19,2.92806,2.92806
58,19,2.95669,2.95669
59,19,2.98503,2.98503
60,19,3.01306,3.01306
61,19,3.04075,3.04075
62,19,3.06808,3.06808
63,19,3.09504,3.09504
1,20,1.38836,1.38836
2,20,1.41022,1.41022
3,20,1.43241,1.43241
4,20,1.45493,1.45493
5,20,1.47778,1.47779
6,20,1.50097,1.50097
7,20,1.52448,1.52449
8,20,1.54832,1.54833
9,20,1.57249,1.57249
10,20,1.59698,1.59698
11,20,1.62179,1.62179
12,20,1.64691,1.64691
13,20,1.67235,1.67235
14,20,1.69809,1.6981
15,20,1.72415,1.72415
16,20,1.7505,1.7505
17,20,1.77715,1.77715
18,20,1.80409,1.80409
19,20,1.83131,1.83131
20,20,1.85881,1.85881
21,20,1.88658,1.88659
22,20,1.91462,1.91462
23,20,1.94291,1.94291
24,20,1.97145,1.97146
25,20,2.00023,2.00024
26,20,2.02925,2.02925
27,20,2.05848,2.05849
28,20,2.08793,2.08794
29,20,2.11758,2.11759
30,20,2.14742,2.14743
31,20,2.17745,2.17745
32,20,2.20764,2.20764
33,20,2.23798,2.23799
34,20,2.26848,2.26848
35,20,2.2991,2.29911
36,20,2.32984,2.32985
37,20,2.36069,2.36069
38,20,2.39162,2.39163
39,20,2.42263,2.42263
40,20,2.45369,2.4537
41,20,2.48481,2.48481
42,20,2.51594,2.51595
43,20,2.54709,2.5471
44,20,2.57824,2.57824
45,20,2.60935,2.60936
46,20,2.64043,2.64044
47,20,2.67145,2.67146
48,20,2.70239,2.7024
49,20,2.73324,2.73324
50,20,2.76397,2.76397
51,20,2.79456,2.79456
52,20,2.825,2.825
53,20,2.85526,2.85527
54,20,2.88533,2.88533
55,20,2.91519,2.91519
56,20,2.94481,2.94481
57,20,2.97417,2.97417
58,20,3.00325,3.00325
59,20,3.03204,3.03204
60,20,3.06051,3.06051
61,20,3.08863,3.08864
62,20,3.1164,3.1164
63,20,3.14378,3.14378
1,21,1.41022,1.41023
2,21,1.43243,1.43243
3,21,1.45497,1.45497
4,21,1.47784,1.47784
5,21,1.50106,1.50106
6,21,1.52461,1.52461
7,21,1.54849,1.54849
8,21,1.57271,1.57271
9,21,1.59725,1.59726
10,21,1.62213,1.62213
11,21,1.64732,1.64733
12,21,1.67284,1.67285
13,21,1.69868,1.69869
14,21,1.72484,1.72484
15,21,1.7513,1.7513
16,21,1.77807,1.77807
17,21,1.80513,1.80514
18,21,1.8325,1.8325
19,21,1.86015,1.86015
20,21,1.88808,1.88809
21,21,1.91629,1.91629
22,21,1.94477,1.94477
23,21,1.9735,1.97351
24,21,2.0025,2.0025
25,21,2.03173,2.03174
26,21,2.0612,2.06121
27,21,2.0909,2.0909
28,21,2.12081,2.12082
29,21,2.15093,2.15093
30,21,2.18124,2.18125
31,21,2.21173,2.21174
32,21,2.2424,2.24241
33,21,2.27323,2.27323
34,21,2.3042,2.30421
35,21,2.33531,2.33531
36,21,2.36653,2.36654
37,21,2.39786,2.39787
38,21,2.42928,2.42929
39,21,2.46078,2.46078
40,21,2.49233,2.49234
41,21,2.52394,2.52394
42,21,2.55556,2.55557
43,21,2.5872,2.58721
44,21,2.61884,2.61884
45,21,2.65045,2.65045
46,21,2.68201,2.68202
47,21,2.71352,2.71352
48,21,2.74495,2.74495
49,21,2.77628,2.77628
50,21,2.80749,2.80749
51,21,2.83857,2.83857
52,21,2.86949,2.86949
53,21,2.90023,2.90023
54,21,2.93077,2.93077
55,21,2.96109,2.9611
56,21,2.99118,2.99118
57,21,3.021,3.02101
58,21,3.05055,3.05055
59,21,3.07979,3.07979
60,21,3.1087,3.1087
61,21,3.13727,3.13727
62,21,3.16548,3.16548
63,21,3.19329,3.19329
1,22,1.43243,1.43243
2,22,1.45498,1.45498
3,22,1.47788,1.47788
4,22,1.50111,1.50112
5,22,1.52469,1.5247
6,22,1.54862,1.54862
7,22,1.57288,1.57288
8,22,1.59747,1.59748
9,22,1.62241,1.62241
10,22,1.64767,1.64767
11,22,1.67327,1.67327
12,22,1.69919,1.69919
13,22,1.72543,1.72544
14,22,1.752,1.752
15,22,1.77888,1.77888
16,22,1.80607,1.80607
17,22,1.83356,1.83357
18,22,1.86135,1.86136
19,22,1.88944,1.88945
20,22,1.91781,1.91782
21,22,1.94647,1.94647
22,22,1.97539,1.9754
23,22,2.00458,2.00459
24,22,2.03403,2.03404
25,22,2.06373,2.06373
26,22,2.09366,2.09367
27,22,2.12382,2.12383
28,22,2.15421,2.15421
29,22,2.1848,2.18481
30,22,2.21559,2.2156
31,22,2.24656,2.24657
32,22,2.27771,2.27772
33,22,2.30903,2.30903
34,22,2.34049,2.34049
35,22,2.37208,2.37209
36,22,2.4038,2.4038
37,22,2.43562,2.43563
38,22,2.46754,2.46754
39,22,2.49953,2.49954
40,22,2.53158,2.53159
41,22,2.56368,2.56369
42,22,2.59581,2.59581
43,22,2.62795,2.62795
44,22,2.66008,2.66008
45,22,2.69218,2.69219
46,22,2.72425,2.72425
47,22,2.75625,2.75626
48,22,2.78818,2.78818
49,22,2.82,2.82
50,22,2.8517,2.85171
51,22,2.88327,2.88327
52,22,2.91467,2.91468
53,22,2.9459,2.9459
54,22,2.97692,2.97692
55,22,3.00772,3.00773
56,22,3.03828,3.03829
57,22,3.06858,3.06858
58,22,3.09859,3.09859
59,22,3.12829,3.12829
60,22,3.15766,3.15766
61,22,3.18668,3.18668
62,22,3.21532,3.21533
63,22,3.24358,3.24358
1,23,1.45499,1.45499
2,23,1.4779,1.4779
3,23,1.50115,1.50115
4,23,1.52475,1.52476
5,23,1.54871,1.54871
6,23,1.573,1.573
7,23,1.59764,1.59765
8,23,1.62263,1.62263
9,23,1.64795,1.64796
10,23,1.67362,1.67362
11,23,1.69962,1.69962
12,23,1.72595,1.72595
13,23,1.7526,1.75261
14,23,1.77959,1.77959
15,23,1.80689,1.8069
16,23,1.83451,1.83451
17,23,1.86243,1.86244
18,23,1.89066,1.89067
19,23,1.91919,1.9192
20,23,1.94801,1.94802
21,23,1.97712,1.97712
22,23,2.0065,2.00651
23,23,2.03615,2.03616
24,23,2.06606,2.06607
25,23,2.09622,2.09623
26,23,2.12663,2.12664
27,23,2.15727,2.15728
28,23,2.18813,2.18814
29,23,2.2192,2.21921
30,23,2.25048,2.25049
31,23,2.28194,2.28195
32,23,2.31358,2.31359
33,23,2.34539,2.34539
34,23,2.37734,2.37735
35,23,2.40944,2.40944
36,23,2.44165,2.44166
37,23,2.47398,2.47398
38,23,2.5064,2.5064
39,23,2.53889,2.5389
40,23,2.57145,2.57146
41,23,2.60405,2.60406
42,23,2.63669,2.63669
43,23,2.66933,2.66934
44,23,2.70197,2.70197
45,23,2.73458,2.73458
46,23,2.76715,2.76715
47,23,2.79966,2.79966
48,23,2.83208,2.83209
49,23,2.86441,2.86441
50,23,2.89661,2.89661
51,23,2.92867,2.92868
52,23,2.96057,2.96058
53,23,2.99229,2.99229
54,23,3.0238,3.0238
55,23,3.05509,3.05509
56,23,3.08613,3.08613
57,23,3.1169,3.1169
58,23,3.14738,3.14738
59,23,3.17755,3.17755
60,23,3.20738,3.20739
61,23,3.23686,3.23686
62,23,3.26596,3.26596
63,23,3.29465,3.29465
1,24,1.4779,1.4779
2,24,1.50117,1.50117
3,24,1.52479,1.52479
4,24,1.54877,1.54877
5,24,1.57309,1.5731
6,24,1.59777,1.59778
7,24,1.6228,1.62281
8,24,1.64818,1.64819
9,24,1.67391,1.67391
10,24,1.69997,1.69998
11,24,1.72638,1.72639
12,24,1.75313,1.75313
13,24,1.7802,1.78021
14,24,1.80761,1.80762
15,24,1.83534,1.83535
16,24,1.8634,1.8634
17,24,1.89176,1.89177
18,24,1.92044,1.92044
19,24,1.94942,1.94942
20,24,1.97869,1.9787
21,24,2.00825,2.00826
22,24,2.0381,2.0381
23,24,2.06821,2.06822
24,24,2.0986,2.0986
25,24,2.12924,2.12924
26,24,2.16012,2.16013
27,24,2.19124,2.19125
28,24,2.22259,2.2226
29,24,2.25415,2.25416
30,24,2.28592,2.28593
31,24,2.31788,2.31789
32,24,2.35002,2.35002
33,24,2.38232,2.38233
34,24,2.41478,2.41479
35,24,2.44738,2.44739
36,24,2.4801,2.48011
37,24,2.51294,2.51294
38,24,2.54587,2.54587
39,24,2.57887,2.57888
40,24,2.61194,2.61195
41,24,2.64506,2.64507
42,24,2.67821,2.67821
43,24,2.71137,2.71137
44,24,2.74452,2.74452
45,24,2.77764,2.77765
46,24,2.81073,2.81073
47,24,2.84374,2.84375
48,24,2.87668,2.87669
49,24,2.90951,2.90952
50,24,2.94223,2.94223
51,24,2.97479,2.9748
52,24,3.00719,3.0072
53,24,3.03941,3.03941
54,24,3.07142,3.07142
55,24,3.1032,3.1032
56,24,3.13473,3.13473
57,24,3.16599,3.16599
58,24,3.19695,3.19695
59,24,3.22759,3.22759
60,24,3.25789,3.25789
61,24,3.28783,3.28783
62,24,3.31739,3.31739
63,24,3.34654,3.34654
1,25,1.50118,1.50118
2,25,1.52481,1.52481
3,25,1.5488,1.5488
4,25,1.57315,1.57316
5,25,1.59787,1.59787
6,25,1.62293,1.62294
7,25,1.64836,1.64836
8,25,1.67414,1.67414
9,25,1.70027,1.70027
10,25,1.72674,1.72675
11,25,1.75357,1.75357
12,25,1.78073,1.78074
13,25,1.80824,1.80824
14,25,1.83608,1.83608
15,25,1.86425,1.86425
16,25,1.89274,1.89275
17,25,1.92155,1.92156
18,25,1.95068,1.95069
19,25,1.98012,1.98012
20,25,2.00985,2.00986
21,25,2.03988,2.03989
22,25,2.07019,2.0702
23,25,2.10078,2.10079
24,25,2.13165,2.13165
25,25,2.16277,2.16277
26,25,2.19414,2.19414
27,25,2.22575,2.22576
28,25,2.25759,2.2576
29,25,2.28965,2.28966
30,25,2.32192,2.32192
31,25,2.35438,2.35439
32,25,2.38702,2.38703
33,25,2.41984,2.41985
34,25,2.45281,2.45282
35,25,2.48592,2.48593
36,25,2.51916,2.51917
37,25,2.55251,2.55252
38,25,2.58596,2.58596
39,25,2.61948,2.61949
40,25,2.65308,2.65308
41,25,2.68672,2.68672
42,25,2.72038,2.72039
43,25,2.75406,2.75407
44,25,2.78774,2.78774
45,25,2.82138,2.82139
46,25,2.85499,2.85499
47,25,2.88853,2.88853
48,25,2.92198,2.92199
49,25,2.95533,2.95534
50,25,2.98856,2.98856
51,25,3.02164,3.02164
52,25,3.05455,3.05455
53,25,3.08727,3.08728
54,25,3.11979,3.11979
55,25,3.15207,3.15207
56,25,3.18409,3.1841
57,25,3.21584,3.21584
58,25,3.24729,3.24729
59,25,3.27842,3.27842
60,25,3.3092,3.3092
61,25,3.33961,3.33961
62,25,3.36963,3.36963
63,25,3.39924,3.39924
1,26,1.52482,1.52482
2,26,1.54882,1.54882
3,26,1.57319,1.57319
4,26,1.59793,1.59793
5,26,1.62303,1.62303
6,26,1.64849,1.64849
7,26,1.67432,1.67432
8,26,1.7005,1.7005
9,26,1.72704,1.72705
10,26,1.75394,1.75394
11,26,1.78118,1.78119
12,26,1.80878,1.80878
13,26,1.83671,1.83672
14,26,1.86499,1.865
15,26,1.8936,1.89361
16,26,1.92255,1.92255
17,26,1.95181,1.95182
18,26,1.9814,1.98141
19,26,2.0113,2.0113
20,26,2.0415,2.04151
21,26,2.072,2.07201
22,26,2.10279,2.1028
23,26,2.13387,2.13387
24,26,2.16521,2.16522
25,26,2.19682,2.19683
26,26,2.22869,2.2287
27,26,2.2608,2.26081
28,26,2.29314,2.29315
29,26,2.32571,2.32571
30,26,2.35848,2.35849
31,26,2.39146,2.39146
32,26,2.42461,2.42462
33,26,2.45794,2.45795
34,26,2.49143,2.49144
35,26,2.52507,2.52507
36,26,2.55883,2.55884
37,26,2.59271,2.59271
38,26,2.62668,2.62669
39,26,2.66074,2.66074
40,26,2.69486,2.69486
41,26,2.72902,2.72903
42,26,2.76322,2.76323
43,26,2.79743,2.79744
44,26,2.83164,2.83164
45,26,2.86582,2.86582
46,26,2.89995,2.89995
47,26,2.93401,2.93402
48,26,2.968,2.968
49,26,3.00187,3.00188
50,26,3.03562,3.03563
51,26,3.06922,3.06923
52,26,3.10265,3.10266
53,26,3.13589,3.1359
54,26,3.16892,3.16892
55,26,3.20171,3.20171
56,26,3.23424,3.23424
57,26,3.26648,3.26649
58,26,3.29843,3.29843
59,26,3.33004,3.33005
60,26,3.36131,3.36131
61,26,3.3922,3.3922
62,26,3.4227,3.4227
63,26,3.45277,3.45277
1,27,1.54883,1.54883
2,27,1.57321,1.57321
3,27,1.59797,1.59797
4,27,1.62309,1.62309
5,27,1.64859,1.64859
6,27,1.67445,1.67445
7,27,1.70068,1.70069
8,27,1.72728,1.72728
9,27,1.75424,1.75424
10,27,1.78156,1.78156
11,27,1.80923,1.80924
12,27,1.83726,1.83727
13,27,1.86564,1.86564
14,27,1.89436,1.89437
15,27,1.92342,1.92343
16,27,1.95282,1.95283
17,27,1.98255,1.98256
18,27,2.0126,2.01261
19,27,2.04297,2.04298
20,27,2.07365,2.07366
21,27,2.10463,2.10464
22,27,2.13591,2.13591
23,27,2.16747,2.16748
24,27,2.19931,2.19932
25,27,2.23142,2.23143
26,27,2.26379,2.26379
27,27,2.2964,2.29641
28,27,2.32925,2.32926
29,27,2.36233,2.36234
30,27,2.39562,2.39563
31,27,2.42912,2.42912
32,27,2.4628,2.4628
33,27,2.49665,2.49666
34,27,2.53067,2.53068
35,27,2.56483,2.56484
36,27,2.59912,2.59913
37,27,2.63353,2.63354
38,27,2.66804,2.66805
39,27,2.70264,2.70264
40,27,2.73729,2.7373
41,27,2.772,2.77201
42,27,2.80674,2.80674
43,27,2.84149,2.84149
44,27,2.87623,2.87623
45,27,2.91095,2.91095
46,27,2.94562,2.94562
47,27,2.98022,2.98022
48,27,3.01474,3.01474
49,27,3.04915,3.04915
50,27,3.08343,3.08343
51,27,3.11756,3.11756
52,27,3.15151,3.15152
53,27,3.18528,3.18528
54,27,3.21882,3.21882
55,27,3.25213,3.25213
56,27,3.28517,3.28517
57,27,3.31792,3.31793
58,27,3.35037,3.35037
59,27,3.38249,3.38249
60,27,3.41424,3.41424
61,27,3.44562,3.44562
62,27,3.47659,3.4766
63,27,3.50714,3.50714
1,28,1.57322,1.57322
2,28,1.59799,1.59799
3,28,1.62313,1.62313
4,28,1.64865,1.64865
5,28,1.67455,1.67455
6,28,1.70082,1.70082
7,28,1.72747,1.72747
8,28,1.75448,1.75448
9,28,1.78186,1.78187
10,28,1.80961,1.80962
11,28,1.83772,1.83773
12,28,1.86619,1.8662
13,28,1.89502,1.89502
14,28,1.92419,1.9242
15,28,1.95371,1.95372
16,28,1.98357,1.98358
17,28,2.01377,2.01378
18,28,2.0443,2.0443
19,28,2.07514,2.07515
20,28,2.1063,2.10631
21,28,2.13777,2.13778
22,28,2.16954,2.16955
23,28,2.2016,2.20161
24,28,2.23394,2.23395
25,28,2.26656,2.26657
26,28,2.29944,2.29944
27,28,2.33256,2.33257
28,28,2.36593,2.36594
29,28,2.39953,2.39954
30,28,2.43335,2.43336
31,28,2.46737,2.46738
32,28,2.50158,2.50159
33,28,2.53597,2.53598
34,28,2.57052,2.57053
35,28,2.60522,2.60523
36,28,2.64006,2.64006
37,28,2.67501,2.67501
38,28,2.71006,2.71007
39,28,2.7452,2.7452
40,28,2.7804,2.78041
41,28,2.81565,2.81566
42,28,2.85094,2.85094
43,28,2.88623,2.88624
44,28,2.92152,2.92153
45,28,2.95679,2.95679
46,28,2.992,2.99201
47,28,3.02715,3.02716
48,28,3.06221,3.06222
49,28,3.09716,3.09717
50,28,3.13198,3.13199
51,28,3.16665,3.16665
52,28,3.20114,3.20115
53,28,3.23544,3.23544
54,28,3.26951,3.26951
55,28,3.30334,3.30334
56,28,3.3369,3.3369
57,28,3.37017,3.37018
58,28,3.40313,3.40313
59,28,3.43575,3.43575
60,28,3.46801,3.46801
61,28,3.49988,3.49988
62,28,3.53134,3.53134
63,28,3.56237,3.56237
1,29,1.59799,1.59799
2,29,1.62315,1.62315
3,29,1.64869,1.64869
4,29,1.67461,1.67462
5,29,1.70092,1.70092
6,29,1.7276,1.72761
7,29,1.75467,1.75467
8,29,1.78211,1.78211
9,29,1.80992,1.80993
10,29,1.83811,1.83811
11,29,1.86666,1.86667
12,29,1.89558,1.89559
13,29,1.92486,1.92487
14,29,1.95449,1.9545
15,29,1.98448,1.98449
16,29,2.01481,2.01482
17,29,2.04548,2.04549
18,29,2.07649,2.0765
19,29,2.10782,2.10783
20,29,2.13947,2.13948
21,29,2.17144,2.17145
22,29,2.20371,2.20372
23,29,2.23627,2.23628
24,29,2.26912,2.26913
25,29,2.30225,2.30226
26,29,2.33565,2.33565
27,29,2.3693,2.36931
28,29,2.40319,2.4032
29,29,2.43732,2.43733
30,29,2.47167,2.47168
31,29,2.50622,2.50623
32,29,2.54097,2.54098
33,29,2.5759,2.57591
34,29,2.611,2.61101
35,29,2.64625,2.64626
36,29,2.68163,2.68164
37,29,2.71713,2.71714
38,29,2.75274,2.75274
39,29,2.78843,2.78843
40,29,2.82418,2.82419
41,29,2.85999,2.86
42,29,2.89583,2.89584
43,29,2.93169,2.93169
44,29,2.96753,2.96754
45,29,3.00335,3.00335
46,29,3.03912,3.03912
47,29,3.07482,3.07483
48,29,3.11043,3.11044
49,29,3.14594,3.14594
50,29,3.1813,3.18131
51,29,3.21652,3.21652
52,29,3.25155,3.25156
53,29,3.28639,3.28639
54,29,3.321,3.321
55,29,3.35536,3.35536
56,29,3.38945,3.38945
57,29,3.42325,3.42325
58,29,3.45672,3.45673
59,29,3.48986,3.48986
60,29,3.52262,3.52262
61,29,3.555,3.555
62,29,3.58695,3.58695
63,29,3.61847,3.61847
1,30,1.62316,1.62316
2,30,1.64871,1.64871
3,30,1.67465,1.67466
4,30,1.70099,1.70099
5,30,1.72771,1.72771
6,30,1.75481,1.75481
7,30,1.7823,1.7823
8,30,1.81017,1.81018
9,30,1.83843,1.83843
10,30,1.86706,1.86706
11,30,1.89606,1.89606
12,30,1.92543,1.92544
13,30,1.95517,1.95518
14,30,1.98527,1.98528
15,30,2.01573,2.01574
16,30,2.04654,2.04655
17,30,2.0777,2.0777
18,30,2.10919,2.1092
19,30,2.14101,2.14102
20,30,2.17317,2.17317
21,30,2.20563,2.20564
22,30,2.23841,2.23842
23,30,2.27149,2.2715
24,30,2.30486,2.30487
25,30,2.33851,2.33852
26,30,2.37243,2.37244
27,30,2.40661,2.40662
28,30,2.44104,2.44105
29,30,2.4757,2.47571
30,30,2.51059,2.5106
31,30,2.54569,2.5457
32,30,2.58099,2.581
33,30,2.61647,2.61648
34,30,2.65212,2.65213
35,30,2.68792,2.68793
36,30,2.72386,2.72387
37,30,2.75992,2.75993
38,30,2.79609,2.79609
39,30,2.83234,2.83235
40,30,2.86866,2.86867
41,30,2.90503,2.90504
42,30,2.94144,2.94144
43,30,2.97785,2.97786
44,30,3.01426,3.01427
45,30,3.05064,3.05065
46,30,3.08698,3.08698
47,30,3.12324,3.12325
48,30,3.15942,3.15942
49,30,3.19548,3.19548
50,30,3.2314,3.23141
51,30,3.26717,3.26717
52,30,3.30276,3.30276
53,30,3.33814,3.33814
54,30,3.3733,3.3733
55,30,3.4082,3.4082
56,30,3.44283,3.44283
57,30,3.47716,3.47716
58,30,3.51116,3.51116
59,30,3.54481,3.54482
60,30,3.5781,3.5781
61,30,3.61098,3.61098
62,30,3.64344,3.64344
63,30,3.67545,3.67545
1,31,1.64872,1.64872
2,31,1.67468,1.67468
3,31,1.70103,1.70103
4,31,1.72777,1.72777
5,31,1.75491,1.75492
6,31,1.78245,1.78245
7,31,1.81037,1.81037
8,31,1.83868,1.83868
9,31,1.86738,1.86738
10,31,1.89646,1.89646
11,31,1.92592,1.92592
12,31,1.95575,1.95576
13,31,1.98596,1.98597
14,31,2.01654,2.01654
15,31,2.04747,2.04748
16,31,2.07877,2.07878
17,31,2.11041,2.11042
18,31,2.1424,2.14241
19,31,2.17473,2.17474
20,31,2.20739,2.2074
21,31,2.24037,2.24038
22,31,2.27366,2.27367
23,31,2.30726,2.30727
24,31,2.34115,2.34116
25,31,2.37533,2.37534
26,31,2.40979,2.4098
27,31,2.44451,2.44452
28,31,2.47948,2.47949
29,31,2.51469,2.5147
30,31,2.55013,2.55014
31,31,2.58578,2.58579
32,31,2.62163,2.62164
33,31,2.65767,2.65768
34,31,2.69388,2.69389
35,31,2.73025,2.73026
36,31,2.76675,2.76676
37,31,2.80338,2.80339
38,31,2.84012,2.84013
39,31,2.87694,2.87695
40,31,2.91383,2.91384
41,31,2.95078,2.95079
42,31,2.98776,2.98776
43,31,3.02475,3.02475
44,31,3.06173,3.06174
45,31,3.09868,3.09869
46,31,3.13559,3.1356
47,31,3.17243,3.17243
48,31,3.20917,3.20917
49,31,3.2458,3.2458
50,31,3.28229,3.28229
51,31,3.31862,3.31862
52,31,3.35477,3.35477
53,31,3.39071,3.39071
54,31,3.42642,3.42642
55,31,3.46187,3.46187
56,31,3.49704,3.49705
57,31,3.53191,3.53191
58,31,3.56645,3.56645
59,31,3.60064,3.60064
60,31,3.63444,3.63444
61,31,3.66784,3.66784
62,31,3.70082,3.70082
63,31,3.73333,3.73333
1,32,1.67468,1.67468
2,32,1.70105,1.70105
3,32,1.72781,1.72782
4,32,1.75498,1.75498
5,32,1.78255,1.78255
6,32,1.81051,1.81052
7,32,1.83888,1.83888
8,32,1.86763,1.86764
9,32,1.89678,1.89679
10,32,1.92632,1.92633
11,32,1.95625,1.95625
12,32,1.98655,1.98656
13,32,2.01724,2.01724
14,32,2.04829,2.0483
15,32,2.07972,2.07972
16,32,2.1115,2.11151
17,32,2.14365,2.14366
18,32,2.17614,2.17615
19,32,2.20898,2.20899
20,32,2.24215,2.24216
21,32,2.27565,2.27566
22,32,2.30947,2.30947
23,32,2.34359,2.3436
24,32,2.37802,2.37803
25,32,2.41274,2.41275
26,32,2.44774,2.44775
27,32,2.483,2.48301
28,32,2.51852,2.51853
29,32,2.55429,2.5543
30,32,2.59029,2.59029
31,32,2.6265,2.62651
32,32,2.66292,2.66293
33,32,2.69952,2.69953
34,32,2.73631,2.73631
35,32,2.77324,2.77325
36,32,2.81032,2.81033
37,32,2.84753,2.84754
38,32,2.88484,2.88485
39,32,2.92225,2.92225
40,32,2.95972,2.95973
41,32,2.99725,2.99725
42,32,3.03481,3.03481
43,32,3.07238,3.07239
44,32,3.10995,3.10995
45,32,3.14748,3.14749
46,32,3.18497,3.18497
47,32,3.22238,3.22239
48,32,3.25971,3.25971
49,32,3.29691,3.29692
50,32,3.33398,3.33398
51,32,3.37088,3.37089
52,32,3.4076,3.4076
53,32,3.4441,3.44411
54,32,3.48037,3.48038
55,32,3.51639,3.51639
56,32,3.55211,3.55212
57,32,3.58753,3.58753
58,32,3.62262,3.62262
59,32,3.65734,3.65734
60,32,3.69168,3.69168
61,32,3.7256,3.72561
62,32,3.7591,3.7591
63,32,3.79212,3.79212
1,33,1.70106,1.70106
2,33,1.72784,1.72784
3,33,1.75502,1.75502
4,33,1.78262,1.78262
5,33,1.81062,1.81062
6,33,1.83903,1.83903
7,33,1.86784,1.86784
8,33,1.89705,1.89705
9,33,1.92665,1.92666
10,33,1.95666,1.95666
11,33,1.98705,1.98706
12,33,2.01784,2.01784
13,33,2.049,2.04901
14,33,2.08055,2.08055
15,33,2.11247,2.11247
16,33,2.14476,2.14476
17,33,2.17741,2.17741
18,33,2.21041,2.21042
19,33,2.24376,2.24377
20,33,2.27746,2.27747
21,33,2.31149,2.31149
22,33,2.34584,2.34584
23,33,2.3805,2.38051
24,33,2.41547,2.41548
25,33,2.45074,2.45074
26,33,2.48628,2.48629
27,33,2.5221,2.52211
28,33,2.55818,2.55819
29,33,2.59451,2.59452
30,33,2.63108,2.63109
31,33,2.66786,2.66787
32,33,2.70485,2.70486
33,33,2.74204,2.74204
34,33,2.7794,2.7794
35,33,2.81692,2.81692
36,33,2.85458,2.85459
37,33,2.89237,2.89238
38,33,2.93027,2.93028
39,33,2.96826,2.96827
40,33,3.00633,3.00634
41,33,3.04445,3.04445
42,33,3.0826,3.08261
43,33,3.12076,3.12077
44,33,3.15892,3.15893
45,33,3.19705,3.19705
46,33,3.23513,3.23513
47,33,3.27313,3.27314
48,33,3.31104,3.31104
49,33,3.34883,3.34884
50,33,3.38648,3.38649
51,33,3.42397,3.42397
52,33,3.46126,3.46126
53,33,3.49834,3.49834
54,33,3.53518,3.53519
55,33,3.57176,3.57176
56,33,3.60805,3.60805
57,33,3.64403,3.64403
58,33,3.67966,3.67966
59,33,3.71493,3.71493
60,33,3.74981,3.74981
61,33,3.78427,3.78427
62,33,3.81829,3.81829
63,33,3.85184,3.85184
1,34,1.72784,1.72784
2,34,1.75504,1.75505
3,34,1.78266,1.78266
4,34,1.81069,1.81069
5,34,1.83913,1.83914
6,34,1.86799,1.86799
7,34,1.89725,1.89725
8,34,1.92692,1.92692
9,34,1.95699,1.957
10,34,1.98747,1.98748
11,34,2.01834,2.01835
12,34,2.04961,2.04962
13,34,2.08127,2.08128
14,34,2.11331,2.11332
15,34,2.14573,2.14574
16,34,2.17853,2.17854
17,34,2.2117,2.2117
18,34,2.24522,2.24523
19,34,2.2791,2.27911
20,34,2.31332,2.31333
21,34,2.34789,2.34789
22,34,2.38278,2.38279
23,34,2.41799,2.418
24,34,2.45351,2.45352
25,34,2.48933,2.48934
26,34,2.52544,2.52545
27,34,2.56182,2.56183
28,34,2.59847,2.59848
29,34,2.63537,2.63538
30,34,2.67251,2.67252
31,34,2.70987,2.70988
32,34,2.74745,2.74746
33,34,2.78522,2.78523
34,34,2.82316,2.82317
35,34,2.86128,2.86128
36,34,2.89953,2.89954
37,34,2.93792,2.93793
38,34,2.97642,2.97643
39,34,3.01501,3.01502
40,34,3.05367,3.05368
41,34,3.09239,3.0924
42,34,3.13114,3.13115
43,34,3.16991,3.16991
44,34,3.20867,3.20867
45,34,3.24739,3.2474
46,34,3.28607,3.28608
47,34,3.32467,3.32468
48,34,3.36318,3.36319
49,34,3.40157,3.40157
50,34,3.43981,3.43981
51,34,3.47788,3.47789
52,34,3.51577,3.51577
53,34,3.55343,3.55343
54,34,3.59085,3.59086
55,34,3.62801,3.62801
56,34,3.66487,3.66487
57,34,3.70141,3.70141
58,34,3.73761,3.73761
59,34,3.77344,3.77344
60,34,3.80886,3.80886
61,34,3.84387,3.84387
62,34,3.87842,3.87842
63,34,3.9125,3.9125
1,35,1.75505,1.75505
2,35,1.78268,1.78268
3,35,1.81073,1.81073
4,35,1.8392,1.83921
5,35,1.86809,1.8681
6,35,1.8974,1.89741
7,35,1.92713,1.92713
8,35,1.95726,1.95727
9,35,1.98781,1.98782
10,35,2.01877,2.01877
11,35,2.05013,2.05013
12,35,2.08189,2.08189
13,35,2.11405,2.11405
14,35,2.14659,2.1466
15,35,2.17953,2.17953
16,35,2.21284,2.21284
17,35,2.24652,2.24653
18,35,2.28058,2.28058
19,35,2.31499,2.315
20,35,2.34975,2.34976
21,35,2.38486,2.38487
22,35,2.4203,2.42031
23,35,2.45607,2.45607
24,35,2.49215,2.49215
25,35,2.52853,2.52854
26,35,2.56521,2.56522
27,35,2.60216,2.60217
28,35,2.63939,2.6394
29,35,2.67687,2.67688
30,35,2.7146,2.71461
31,35,2.75255,2.75256
32,35,2.79071,2.79072
33,35,2.82908,2.82909
34,35,2.86762,2.86763
35,35,2.90633,2.90634
36,35,2.94519,2.9452
37,35,2.98419,2.98419
38,35,3.02329,3.0233
39,35,3.06249,3.0625
40,35,3.10176,3.10177
41,35,3.14109,3.1411
42,35,3.18045,3.18046
43,35,3.21983,3.21983
44,35,3.25919,3.2592
45,35,3.29853,3.29854
46,35,3.33782,3.33783
47,35,3.37703,3.37704
48,35,3.41614,3.41615
49,35,3.45513,3.45514
50,35,3.49398,3.49398
51,35,3.53265,3.53266
52,35,3.57113,3.57114
53,35,3.60939,3.60939
54,35,3.6474,3.6474
55,35,3.68514,3.68514
56,35,3.72258,3.72259
57,35,3.7597,3.7597
58,35,3.79647,3.79647
59,35,3.83286,3.83286
60,35,3.86884,3.86885
61,35,3.9044,3.9044
62,35,3.9395,3.9395
63,35,3.97411,3.97411
1,36,1.78269,1.78269
2,36,1.81076,1.81076
3,36,1.83925,1.83925
4,36,1.86817,1.86817
5,36,1.89751,1.89752
6,36,1.92728,1.92729
7,36,1.95747,1.95748
8,36,1.98809,1.98809
9,36,2.01912,2.01912
10,36,2.05056,2.05056
11,36,2.08241,2.08242
12,36,2.11467,2.11468
13,36,2.14734,2.14734
14,36,2.1804,2.1804
15,36,2.21385,2.21385
16,36,2.24769,2.24769
17,36,2.2819,2.28191
18,36,2.31649,2.3165
19,36,2.35145,2.35145
20,36,2.38676,2.38676
21,36,2.42242,2.42242
22,36,2.45841,2.45842
23,36,2.49474,2.49475
24,36,2.53139,2.5314
25,36,2.56835,2.56836
26,36,2.6056,2.60561
27,36,2.64314,2.64315
28,36,2.68095,2.68096
29,36,2.71903,2.71904
30,36,2.75735,2.75735
31,36,2.7959,2.7959
32,36,2.83466,2.83467
33,36,2.87363,2.87364
34,36,2.91278,2.91279
35,36,2.9521,2.95211
36,36,2.99157,2.99158
37,36,3.03118,3.03119
38,36,3.0709,3.07091
39,36,3.11072,3.11072
40,36,3.15061,3.15061
41,36,3.19055,3.19056
42,36,3.23054,3.23054
43,36,3.27053,3.27054
44,36,3.31052,3.31053
45,36,3.35048,3.35048
46,36,3.39038,3.39039
47,36,3.43021,3.43022
48,36,3.46994,3.46995
49,36,3.50955,3.50955
50,36,3.549,3.54901
51,36,3.58828,3.58829
52,36,3.62737,3.62737
53,36,3.66623,3.66623
54,36,3.70484,3.70484
55,36,3.74317,3.74318
56,36,3.78121,3.78121
57,36,3.81891,3.81891
58,36,3.85625,3.85626
59,36,3.89322,3.89322
60,36,3.92977,3.92977
61,36,3.96589,3.96589
62,36,4.00154,4.00154
63,36,4.0367,4.0367
1,37,1.81076,1.81076
2,37,1.83927,1.83927
3,37,1.86821,1.86821
4,37,1.89759,1.89759
5,37,1.92739,1.9274
6,37,1.95763,1.95764
7,37,1.9883,1.9883
8,37,2.01939,2.0194
9,37,2.05091,2.05092
10,37,2.08285,2.08286
11,37,2.11521,2.11521
12,37,2.14798,2.14798
13,37,2.18115,2.18116
14,37,2.21473,2.21474
15,37,2.24871,2.24872
16,37,2.28308,2.28309
17,37,2.31784,2.31784
18,37,2.35297,2.35298
19,37,2.38848,2.38848
20,37,2.42434,2.42435
21,37,2.46056,2.46057
22,37,2.49713,2.49714
23,37,2.53403,2.53404
24,37,2.57126,2.57126
25,37,2.60879,2.6088
26,37,2.64664,2.64664
27,37,2.68477,2.68477
28,37,2.72317,2.72318
29,37,2.76185,2.76185
30,37,2.80077,2.80078
31,37,2.83992,2.83993
32,37,2.8793,2.87931
33,37,2.91888,2.91889
34,37,2.95865,2.95866
35,37,2.99859,2.9986
36,37,3.03869,3.03869
37,37,3.07891,3.07892
38,37,3.11926,3.11927
39,37,3.1597,3.15971
40,37,3.20022,3.20023
41,37,3.2408,3.2408
42,37,3.28141,3.28142
43,37,3.32204,3.32204
44,37,3.36265,3.36266
45,37,3.40324,3.40325
46,37,3.44377,3.44378
47,37,3.48423,3.48423
48,37,3.52458,3.52459
49,37,3.56481,3.56482
50,37,3.60489,3.60489
51,37,3.64479,3.6448
52,37,3.68449,3.6845
53,37,3.72396,3.72397
54,37,3.76318,3.76319
55,37,3.80212,3.80212
56,37,3.84075,3.84075
57,37,3.87905,3.87905
58,37,3.91698,3.91698
59,37,3.95453,3.95453
60,37,3.99165,3.99166
61,37,4.02834,4.02834
62,37,4.06455,4.06455
63,37,4.10026,4.10026
1,38,1.83928,1.83928
2,38,1.86824,1.86824
3,38,1.89763,1.89763
4,38,1.92747,1.92747
5,38,1.95775,1.95775
6,38,1.98846,1.98846
7,38,2.01961,2.01962
8,38,2.0512,2.0512
9,38,2.08321,2.08321
10,38,2.11565,2.11566
11,38,2.14852,2.14852
12,38,2.1818,2.18181
13,38,2.2155,2.21551
14,38,2.24961,2.24962
15,38,2.28412,2.28413
16,38,2.31903,2.31904
17,38,2.35434,2.35434
18,38,2.39002,2.39003
19,38,2.42609,2.4261
20,38,2.46252,2.46253
21,38,2.49931,2.49932
22,38,2.53645,2.53646
23,38,2.57394,2.57394
24,38,2.61175,2.61176
25,38,2.64988,2.64989
26,38,2.68831,2.68832
27,38,2.72705,2.72705
28,38,2.76606,2.76607
29,38,2.80534,2.80535
30,38,2.84487,2.84488
31,38,2.88465,2.88466
32,38,2.92464,2.92465
33,38,2.96485,2.96486
34,38,3.00524,3.00525
35,38,3.04581,3.04582
36,38,3.08654,3.08655
37,38,3.1274,3.12741
38,38,3.16838,3.16839
39,38,3.20946,3.20947
40,38,3.25062,3.25062
41,38,3.29183,3.29184
42,38,3.33308,3.33309
43,38,3.37435,3.37436
44,38,3.41561,3.41561
45,38,3.45683,3.45684
46,38,3.498,3.49801
47,38,3.5391,3.5391
48,38,3.58009,3.58009
49,38,3.62095,3.62095
50,38,3.66166,3.66166
51,38,3.70219,3.70219
52,38,3.74251,3.74252
53,38,3.78261,3.78261
54,38,3.82244,3.82245
55,38,3.862,3.862
56,38,3.90123,3.90124
57,38,3.94013,3.94013
58,38,3.97866,3.97867
59,38,4.0168,4.0168
60,38,4.05451,4.05452
61,38,4.09178,4.09178
62,38,4.12856,4.12856
63,38,4.16483,4.16483
1,39,1.86824,1.86824
2,39,1.89766,1.89766
3,39,1.92752,1.92752
4,39,1.95782,1.95783
5,39,1.98858,1.98858
6,39,2.01978,2.01978
7,39,2.05142,2.05142
8,39,2.0835,2.0835
9,39,2.11602,2.11602
10,39,2.14897,2.14897
11,39,2.18235,2.18236
12,39,2.21616,2.21617
13,39,2.25039,2.2504
14,39,2.28504,2.28504
15,39,2.32009,2.3201
16,39,2.35555,2.35556
17,39,2.39141,2.39142
18,39,2.42766,2.42767
19,39,2.46429,2.4643
20,39,2.5013,2.50131
21,39,2.53867,2.53868
22,39,2.5764,2.57641
23,39,2.61447,2.61448
24,39,2.65288,2.65288
25,39,2.69161,2.69162
26,39,2.73065,2.73066
27,39,2.76999,2.77
28,39,2.80962,2.80963
29,39,2.84952,2.84952
30,39,2.88967,2.88968
31,39,2.93007,2.93008
32,39,2.9707,2.97071
33,39,3.01154,3.01155
34,39,3.05257,3.05258
35,39,3.09378,3.09379
36,39,3.13514,3.13515
37,39,3.17665,3.17666
38,39,3.21828,3.21828
39,39,3.26,3.26001
40,39,3.30181,3.30181
41,39,3.34367,3.34368
42,39,3.38557,3.38558
43,39,3.42749,3.42749
44,39,3.4694,3.4694
45,39,3.51127,3.51128
46,39,3.55309,3.5531
47,39,3.59483,3.59484
48,39,3.63647,3.63647
49,39,3.67797,3.67798
50,39,3.71932,3.71933
51,39,3.76049,3.76049
52,39,3.80145,3.80145
53,39,3.84218,3.84218
54,39,3.88264,3.88264
55,39,3.92281,3.92282
56,39,3.96267,3.96267
57,39,4.00218,4.00218
58,39,4.04132,4.04132
59,39,4.08006,4.08006
60,39,4.11836,4.11836
61,39,4.15621,4.15621
62,39,4.19357,4.19357
63,39,4.23042,4.23042
1,40,1.89766,1.89767
2,40,1.92754,1.92754
3,40,1.95787,1.95787
4,40,1.98865,1.98866
5,40,2.01989,2.0199
6,40,2.05158,2.05159
7,40,2.08372,2.08372
8,40,2.11631,2.11631
9,40,2.14934,2.14934
10,40,2.18281,2.18281
11,40,2.21672,2.21672
12,40,2.25106,2.25106
13,40,2.28583,2.28583
14,40,2.32102,2.32103
15,40,2.35663,2.35664
16,40,2.39265,2.39266
17,40,2.42907,2.42908
18,40,2.46589,2.4659
19,40,2.5031,2.50311
20,40,2.54069,2.5407
21,40,2.57865,2.57866
22,40,2.61697,2.61698
23,40,2.65564,2.65565
24,40,2.69465,2.69466
25,40,2.73399,2.734
26,40,2.77365,2.77366
27,40,2.81361,2.81362
28,40,2.85386,2.85387
29,40,2.89439,2.8944
30,40,2.93518,2.93519
31,40,2.97622,2.97622
32,40,3.01748,3.01749
33,40,3.05896,3.05897
34,40,3.10064,3.10065
35,40,3.1425,3.14251
36,40,3.18452,3.18452
37,40,3.22667,3.22668
38,40,3.26896,3.26896
39,40,3.31134,3.31135
40,40,3.3538,3.35381
41,40,3.39633,3.39633
42,40,3.43889,3.43889
43,40,3.48146,3.48147
44,40,3.52403,3.52404
45,40,3.56657,3.56657
46,40,3.60904,3.60905
47,40,3.65144,3.65145
48,40,3.69373,3.69374
49,40,3.73589,3.7359
50,40,3.77789,3.7779
51,40,3.81971,3.81971
52,40,3.86131,3.86132
53,40,3.90268,3.90268
54,40,3.94378,3.94378
55,40,3.98459,3.98459
56,40,4.02507,4.02507
57,40,4.06521,4.06521
58,40,4.10496,4.10496
59,40,4.14431,4.14431
60,40,4.18322,4.18322
61,40,4.22166,4.22166
62,40,4.25961,4.25961
63,40,4.29704,4.29704
1,41,1.92755,1.92755
2,41,1.95789,1.95789
3,41,1.9887,1.9887
4,41,2.01997,2.01997
5,41,2.0517,2.0517
6,41,2.08389,2.08389
7,41,2.11654,2.11654
8,41,2.14963,2.14964
9,41,2.18319,2.18319
10,41,2.21718,2.21719
11,41,2.25163,2.25163
12,41,2.28651,2.28651
13,41,2.32183,2.32183
14,41,2.35757,2.35758
15,41,2.39374,2.39375
16,41,2.43033,2.43033
17,41,2.46732,2.46733
18,41,2.50472,2.50473
19,41,2.54252,2.54253
20,41,2.5807,2.58071
21,41,2.61926,2.61926
22,41,2.65818,2.65819
23,41,2.69746,2.69747
24,41,2.73709,2.7371
25,41,2.77705,2.77706
26,41,2.81733,2.81734
27,41,2.85792,2.85793
28,41,2.8988,2.89881
29,41,2.93997,2.93998
30,41,2.9814,2.98141
31,41,3.02308,3.02309
32,41,3.065,3.06501
33,41,3.10713,3.10714
34,41,3.14947,3.14948
35,41,3.19199,3.19199
36,41,3.23466,3.23467
37,41,3.27749,3.2775
38,41,3.32044,3.32044
39,41,3.36349,3.36349
40,41,3.40662,3.40663
41,41,3.44981,3.44982
42,41,3.49304,3.49305
43,41,3.53629,3.53629
44,41,3.57953,3.57953
45,41,3.62273,3.62274
46,41,3.66588,3.66588
47,41,3.70894,3.70895
48,41,3.7519,3.75191
49,41,3.79472,3.79473
50,41,3.83739,3.83739
51,41,3.87986,3.87987
52,41,3.92212,3.92213
53,41,3.96414,3.96414
54,41,4.00589,4.00589
55,41,4.04734,4.04734
56,41,4.08846,4.08846
57,41,4.12922,4.12923
58,41,4.1696,4.16961
59,41,4.20957,4.20957
60,41,4.24909,4.2491
61,41,4.28814,4.28815
62,41,4.32669,4.32669
63,41,4.36471,4.36471
1,42,1.9579,1.9579
2,42,1.98873,1.98873
3,42,2.02002,2.02002
4,42,2.05178,2.05178
5,42,2.08401,2.08401
6,42,2.11671,2.11671
7,42,2.14987,2.14987
8,42,2.18349,2.18349
9,42,2.21757,2.21757
10,42,2.2521,2.2521
11,42,2.28708,2.28709
12,42,2.32252,2.32252
13,42,2.35839,2.35839
14,42,2.3947,2.3947
15,42,2.43144,2.43144
16,42,2.4686,2.46861
17,42,2.50618,2.50619
18,42,2.54417,2.54418
19,42,2.58256,2.58257
20,42,2.62134,2.62135
21,42,2.6605,2.66051
22,42,2.70004,2.70005
23,42,2.73994,2.73995
24,42,2.78019,2.7802
25,42,2.82078,2.82079
26,42,2.8617,2.8617
27,42,2.90293,2.90293
28,42,2.94445,2.94446
29,42,2.98627,2.98628
30,42,3.02835,3.02836
31,42,3.07069,3.0707
32,42,3.11327,3.11328
33,42,3.15607,3.15607
34,42,3.19907,3.19907
35,42,3.24225,3.24226
36,42,3.2856,3.28561
37,42,3.3291,3.32911
38,42,3.37272,3.37273
39,42,3.41645,3.41646
40,42,3.46027,3.46027
41,42,3.50414,3.50415
42,42,3.54805,3.54806
43,42,3.59198,3.59198
44,42,3.6359,3.6359
45,42,3.67978,3.67979
46,42,3.72361,3.72361
47,42,3.76735,3.76736
48,42,3.81098,3.81099
49,42,3.85448,3.85449
50,42,3.89782,3.89782
51,42,3.94096,3.94096
52,42,3.98389,3.98389
53,42,4.02657,4.02657
54,42,4.06897,4.06897
55,42,4.11107,4.11108
56,42,4.15284,4.15284
57,42,4.19425,4.19425
58,42,4.23527,4.23527
59,42,4.27586,4.27586
60,42,4.31601,4.31601
61,42,4.35567,4.35567
62,42,4.39483,4.39483
63,42,4.43344,4.43344
1,43,1.98874,1.98874
2,43,2.02004,2.02005
3,43,2.05183,2.05183
4,43,2.08409,2.08409
5,43,2.11683,2.11683
6,43,2.15004,2.15004
7,43,2.18372,2.18372
8,43,2.21787,2.21788
9,43,2.25249,2.25249
10,43,2.28756,2.28757
11,43,2.3231,2.32311
12,43,2.35909,2.3591
13,43,2.39553,2.39553
14,43,2.43241,2.43241
15,43,2.46973,2.46973
16,43,2.50748,2.50748
17,43,2.54565,2.54565
18,43,2.58423,2.58424
19,43,2.62323,2.62324
20,43,2.66262,2.66263
21,43,2.7024,2.70241
22,43,2.74256,2.74257
23,43,2.78309,2.7831
24,43,2.82397,2.82398
25,43,2.8652,2.86521
26,43,2.90676,2.90677
27,43,2.94864,2.94865
28,43,2.99082,2.99083
29,43,3.0333,3.0333
30,43,3.07604,3.07605
31,43,3.11905,3.11906
32,43,3.16229,3.1623
33,43,3.20577,3.20577
34,43,3.24944,3.24945
35,43,3.29331,3.29332
36,43,3.33734,3.33735
37,43,3.38153,3.38153
38,43,3.42584,3.42584
39,43,3.47025,3.47026
40,43,3.51476,3.51476
41,43,3.55932,3.55933
42,43,3.60392,3.60393
43,43,3.64854,3.64855
44,43,3.69315,3.69316
45,43,3.73773,3.73773
46,43,3.78225,3.78225
47,43,3.82668,3.82668
48,43,3.871,3.871
49,43,3.91518,3.91519
50,43,3.9592,3.9592
51,43,4.00302,4.00303
52,43,4.04662,4.04663
53,43,4.08998,4.08998
54,43,4.13305,4.13305
55,43,4.17581,4.17582
56,43,4.21824,4.21824
57,43,4.2603,4.2603
58,43,4.30196,4.30196
59,43,4.3432,4.3432
60,43,4.38398,4.38398
61,43,4.42426,4.42427
62,43,4.46404,4.46404
63,43,4.50326,4.50326
1,44,2.02005,2.02005
2,44,2.05186,2.05186
3,44,2.08414,2.08414
4,44,2.11691,2.11691
5,44,2.15016,2.15017
6,44,2.1839,2.1839
7,44,2.21811,2.21811
8,44,2.2528,2.2528
9,44,2.28796,2.28796
10,44,2.32359,2.32359
11,44,2.35968,2.35969
12,44,2.39624,2.39625
13,44,2.43325,2.43326
14,44,2.47071,2.47072
15,44,2.50862,2.50863
16,44,2.54696,2.54697
17,44,2.58573,2.58574
18,44,2.62493,2.62494
19,44,2.66454,2.66455
20,44,2.70455,2.70456
21,44,2.74496,2.74497
22,44,2.78575,2.78576
23,44,2.82692,2.82692
24,44,2.86844,2.86845
25,44,2.91032,2.91033
26,44,2.95254,2.95254
27,44,2.99507,2.99508
28,44,3.03792,3.03793
29,44,3.08106,3.08107
30,44,3.12448,3.12449
31,44,3.16817,3.16817
32,44,3.21209,3.2121
33,44,3.25625,3.25626
34,44,3.30062,3.30062
35,44,3.34517,3.34518
36,44,3.3899,3.38991
37,44,3.43478,3.43479
38,44,3.47979,3.47979
39,44,3.5249,3.52491
40,44,3.57011,3.57011
41,44,3.61537,3.61538
42,44,3.66068,3.66068
43,44,3.706,3.70601
44,44,3.75131,3.75132
45,44,3.79659,3.7966
46,44,3.84181,3.84181
47,44,3.88694,3.88694
48,44,3.93196,3.93196
49,44,3.97684,3.97684
50,44,4.02155,4.02155
51,44,4.06606,4.06606
52,44,4.11035,4.11035
53,44,4.15438,4.15439
54,44,4.19813,4.19814
55,44,4.24157,4.24157
56,44,4.28467,4.28467
57,44,4.32739,4.32739
58,44,4.36971,4.36971
59,44,4.41159,4.41159
60,44,4.45301,4.45301
61,44,4.49394,4.49394
62,44,4.53433,4.53434
63,44,4.57417,4.57418
1,45,2.05186,2.05187
2,45,2.08417,2.08417
3,45,2.11696,2.11696
4,45,2.15025,2.15025
5,45,2.18402,2.18403
6,45,2.21829,2.21829
7,45,2.25304,2.25304
8,45,2.28827,2.28828
9,45,2.32399,2.32399
10,45,2.36018,2.36018
11,45,2.39684,2.39685
12,45,2.43398,2.43398
13,45,2.47157,2.47158
14,45,2.50962,2.50963
15,45,2.54812,2.54813
16,45,2.58707,2.58708
17,45,2.62645,2.62646
18,45,2.66627,2.66627
19,45,2.7065,2.70651
20,45,2.74714,2.74715
21,45,2.78819,2.78819
22,45,2.82962,2.82963
23,45,2.87143,2.87144
24,45,2.91362,2.91362
25,45,2.95615,2.95616
26,45,2.99903,2.99904
27,45,3.04224,3.04225
28,45,3.08576,3.08577
29,45,3.12958,3.12959
30,45,3.17369,3.17369
31,45,3.21806,3.21807
32,45,3.26268,3.26269
33,45,3.30753,3.30754
34,45,3.35259,3.3526
35,45,3.39785,3.39786
36,45,3.44328,3.44329
37,45,3.48887,3.48888
38,45,3.53459,3.53459
39,45,3.58041,3.58042
40,45,3.62633,3.62633
41,45,3.67231,3.67231
42,45,3.71833,3.71833
43,45,3.76436,3.76437
44,45,3.81039,3.81039
45,45,3.85638,3.85638
46,45,3.90231,3.90231
47,45,3.94815,3.94815
48,45,3.99388,3.99388
49,45,4.03946,4.03947
50,45,4.08488,4.08488
51,45,4.13009,4.13009
52,45,4.17508,4.17508
53,45,4.21981,4.21981
54,45,4.26425,4.26425
55,45,4.30837,4.30837
56,45,4.35214,4.35214
57,45,4.39554,4.39554
58,45,4.43852,4.43852
59,45,4.48107,4.48107
60,45,4.52314,4.52314
61,45,4.56471,4.56471
62,45,4.60574,4.60574
63,45,4.64621,4.64621
1,46,2.08418,2.08418
2,46,2.11699,2.11699
3,46,2.1503,2.1503
4,46,2.18411,2.18411
5,46,2.21842,2.21842
6,46,2.25322,2.25323
7,46,2.28852,2.28852
8,46,2.32431,2.32431
9,46,2.36059,2.36059
10,46,2.39735,2.39735
11,46,2.43459,2.43459
12,46,2.47231,2.47231
13,46,2.51049,2.5105
14,46,2.54914,2.54915
15,46,2.58825,2.58826
16,46,2.62781,2.62782
17,46,2.66782,2.66782
18,46,2.70825,2.70826
19,46,2.74912,2.74913
20,46,2.7904,2.79041
21,46,2.83209,2.8321
22,46,2.87418,2.87419
23,46,2.91665,2.91666
24,46,2.9595,2.95951
25,46,3.00271,3.00271
26,46,3.04626,3.04627
27,46,3.09015,3.09016
28,46,3.13436,3.13436
29,46,3.17887,3.17887
30,46,3.22367,3.22367
31,46,3.26873,3.26874
32,46,3.31406,3.31407
33,46,3.35961,3.35962
34,46,3.40539,3.4054
35,46,3.45136,3.45137
36,46,3.49751,3.49751
37,46,3.54381,3.54382
38,46,3.59025,3.59025
39,46,3.6368,3.6368
40,46,3.68343,3.68344
41,46,3.73014,3.73014
42,46,3.77688,3.77689
43,46,3.82364,3.82365
44,46,3.87039,3.8704
45,46,3.91711,3.91711
46,46,3.96376,3.96377
47,46,4.01032,4.01033
48,46,4.05677,4.05678
49,46,4.10308,4.10308
50,46,4.1492,4.14921
51,46,4.19513,4.19513
52,46,4.24083,4.24083
53,46,4.28626,4.28626
54,46,4.3314,4.3314
55,46,4.37621,4.37622
56,46,4.42068,4.42068
57,46,4.46476,4.46476
58,46,4.50842,4.50842
59,46,4.55163,4.55163
60,46,4.59437,4.59437
61,46,4.63659,4.63659
62,46,4.67827,4.67827
63,46,4.71937,4.71938
1,47,2.117,2.117
2,47,2.15033,2.15033
3,47,2.18416,2.18416
4,47,2.2185,2.21851
5,47,2.25335,2.25336
6,47,2.28871,2.28871
7,47,2.32456,2.32456
8,47,2.36091,2.36092
9,47,2.39776,2.39776
10,47,2.4351,2.43511
11,47,2.47293,2.47293
12,47,2.51124,2.51124
13,47,2.55003,2.55003
14,47,2.58929,2.58929
15,47,2.62901,2.62902
16,47,2.66919,2.6692
17,47,2.70983,2.70983
18,47,2.7509,2.75091
19,47,2.79241,2.79242
20,47,2.83435,2.83435
21,47,2.87669,2.8767
22,47,2.91944,2.91945
23,47,2.96258,2.96259
24,47,3.0061,3.00611
25,47,3.04999,3.05
26,47,3.09423,3.09424
27,47,3.13881,3.13882
28,47,3.18372,3.18372
29,47,3.22893,3.22893
30,47,3.27443,3.27444
31,47,3.32021,3.32022
32,47,3.36625,3.36625
33,47,3.41252,3.41253
34,47,3.45902,3.45902
35,47,3.50571,3.50572
36,47,3.55259,3.55259
37,47,3.59962,3.59962
38,47,3.64679,3.64679
39,47,3.69407,3.69407
40,47,3.74144,3.74145
41,47,3.78888,3.78888
42,47,3.83636,3.83636
43,47,3.88385,3.88386
44,47,3.93134,3.93135
45,47,3.97879,3.9788
46,47,4.02618,4.02619
47,47,4.07348,4.07348
48,47,4.12066,4.12066
49,47,4.16769,4.16769
50,47,4.21454,4.21455
51,47,4.26119,4.2612
52,47,4.30761,4.30761
53,47,4.35376,4.35376
54,47,4.39961,4.39961
55,47,4.44513,4.44513
56,47,4.49029,4.4903
57,47,4.53507,4.53507
58,47,4.57942,4.57942
59,47,4.62331,4.62331
60,47,4.66672,4.66672
61,47,4.70961,4.70961
62,47,4.75194,4.75194
63,47,4.79369,4.79369
1,48,2.15034,2.15034
2,48,2.18419,2.18419
3,48,2.21856,2.21856
4,48,2.25344,2.25344
5,48,2.28884,2.28884
6,48,2.32475,2.32475
7,48,2.36117,2.36117
8,48,2.39809,2.3981
9,48,2.43552,2.43552
10,48,2.47345,2.47345
11,48,2.51187,2.51188
12,48,2.55079,2.55079
13,48,2.59018,2.59019
14,48,2.63006,2.63007
15,48,2.67041,2.67042
16,48,2.71123,2.71123
17,48,2.7525,2.75251
18,48,2.79422,2.79423
19,48,2.83639,2.83639
20,48,2.87898,2.87899
21,48,2.92199,2.922
22,48,2.96542,2.96542
23,48,3.00924,3.00925
24,48,3.05344,3.05345
25,48,3.09802,3.09803
26,48,3.14296,3.14297
27,48,3.18824,3.18825
28,48,3.23385,3.23386
29,48,3.27978,3.27978
30,48,3.326,3.326
31,48,3.3725,3.3725
32,48,3.41926,3.41926
33,48,3.46626,3.46627
34,48,3.51349,3.5135
35,48,3.56092,3.56093
36,48,3.60853,3.60854
37,48,3.6563,3.65631
38,48,3.70421,3.70422
39,48,3.75224,3.75225
40,48,3.80036,3.80037
41,48,3.84854,3.84855
42,48,3.89677,3.89678
43,48,3.94502,3.94502
44,48,3.99325,3.99326
45,48,4.04145,4.04145
46,48,4.08958,4.08959
47,48,4.13763,4.13763
48,48,4.18555,4.18555
49,48,4.23332,4.23332
50,48,4.28091,4.28092
51,48,4.3283,4.3283
52,48,4.37544,4.37545
53,48,4.42232,4.42232
54,48,4.46889,4.46889
55,48,4.51513,4.51513
56,48,4.56101,4.56101
57,48,4.60648,4.60648
58,48,4.65153,4.65153
59,48,4.69612,4.69612
60,48,4.74021,4.74021
61,48,4.78377,4.78377
62,48,4.82677,4.82677
63,48,4.86918,4.86918
1,49,2.1842,2.1842
2,49,2.21858,2.21859
3,49,2.25349,2.2535
4,49,2.28893,2.28893
5,49,2.32488,2.32488
6,49,2.36136,2.36136
7,49,2.39835,2.39835
8,49,2.43586,2.43586
9,49,2.47387,2.47388
10,49,2.5124,2.5124
11,49,2.55143,2.55143
12,49,2.59095,2.59096
13,49,2.63097,2.63098
14,49,2.67148,2.67149
15,49,2.71247,2.71247
16,49,2.75392,2.75393
17,49,2.79585,2.79585
18,49,2.83823,2.83823
19,49,2.88105,2.88106
20,49,2.92432,2.92432
21,49,2.96801,2.96802
22,49,3.01212,3.01212
23,49,3.05663,3.05663
24,49,3.10153,3.10154
25,49,3.14681,3.14682
26,49,3.19245,3.19246
27,49,3.23845,3.23846
28,49,3.28478,3.28479
29,49,3.33142,3.33143
30,49,3.37837,3.37838
31,49,3.42561,3.42561
32,49,3.4731,3.47311
33,49,3.52085,3.52085
34,49,3.56882,3.56883
35,49,3.617,3.617
36,49,3.66536,3.66536
37,49,3.71388,3.71389
38,49,3.76255,3.76255
39,49,3.81133,3.81134
40,49,3.86021,3.86021
41,49,3.90915,3.90916
42,49,3.95814,3.95814
43,49,4.00714,4.00715
44,49,4.05614,4.05614
45,49,4.10509,4.1051
46,49,4.15399,4.15399
47,49,4.20278,4.20279
48,49,4.25146,4.25147
49,49,4.29999,4.29999
50,49,4.34833,4.34833
51,49,4.39646,4.39646
52,49,4.44435,4.44435
53,49,4.49196,4.49196
54,49,4.53927,4.53927
55,49,4.58623,4.58624
56,49,4.63283,4.63283
57,49,4.67902,4.67903
58,49,4.72478,4.72478
59,49,4.77007,4.77007
60,49,4.81486,4.81486
61,49,4.8591,4.85911
62,49,4.90278,4.90279
63,49,4.94586,4.94586
1,50,2.2186,2.2186
2,50,2.25352,2.25352
3,50,2.28898,2.28898
4,50,2.32497,2.32498
5,50,2.36149,2.3615
6,50,2.39854,2.39855
7,50,2.43612,2.43612
8,50,2.47422,2.47422
9,50,2.51283,2.51284
10,50,2.55196,2.55197
11,50,2.59161,2.59161
12,50,2.63176,2.63176
13,50,2.67241,2.67241
14,50,2.71355,2.71355
15,50,2.75518,2.75519
16,50,2.79729,2.7973
17,50,2.83988,2.83988
18,50,2.88292,2.88293
19,50,2.92642,2.92643
20,50,2.97037,2.97038
21,50,3.01475,3.01476
22,50,3.05955,3.05956
23,50,3.10476,3.10477
24,50,3.15037,3.15038
25,50,3.19636,3.19637
26,50,3.24273,3.24274
27,50,3.28945,3.28945
28,50,3.33651,3.33651
29,50,3.38389,3.38389
30,50,3.43158,3.43158
31,50,3.47955,3.47956
32,50,3.5278,3.5278
33,50,3.57629,3.5763
34,50,3.62502,3.62503
35,50,3.67395,3.67396
36,50,3.72308,3.72309
37,50,3.77237,3.77237
38,50,3.8218,3.82181
39,50,3.87135,3.87136
40,50,3.921,3.921
41,50,3.97071,3.97072
42,50,4.02047,4.02048
43,50,4.07025,4.07025
44,50,4.12001,4.12002
45,50,4.16974,4.16974
46,50,4.2194,4.21941
47,50,4.26897,4.26897
48,50,4.31841,4.31842
49,50,4.3677,4.36771
50,50,4.41681,4.41681
51,50,4.46569,4.4657
52,50,4.51434,4.51434
53,50,4.5627,4.5627
54,50,4.61075,4.61075
55,50,4.65846,4.65846
56,50,4.70579,4.70579
57,50,4.75271,4.75271
58,50,4.79919,4.79919
59,50,4.84519,4.84519
60,50,4.89068,4.89068
61,50,4.93562,4.93562
62,50,4.97999,4.97999
63,50,5.02375,5.02375
1,51,2.25353,2.25353
2,51,2.28901,2.28901
3,51,2.32503,2.32503
4,51,2.36159,2.36159
5,51,2.39868,2.39868
6,51,2.43632,2.43632
7,51,2.47448,2.47448
8,51,2.51318,2.51318
9,51,2.5524,2.55241
10,51,2.59215,2.59216
11,51,2.63242,2.63242
12,51,2.6732,2.67321
13,51,2.71449,2.7145
14,51,2.75628,2.75629
15,51,2.79857,2.79857
16,51,2.84134,2.84135
17,51,2.8846,2.8846
18,51,2.92832,2.92833
19,51,2.97251,2.97251
20,51,3.01715,3.01715
21,51,3.06222,3.06223
22,51,3.10773,3.10774
23,51,3.15366,3.15366
24,51,3.19998,3.19999
25,51,3.2467,3.24671
26,51,3.29379,3.2938
27,51,3.34125,3.34126
28,51,3.38905,3.38906
29,51,3.43718,3.43718
30,51,3.48562,3.48562
31,51,3.53435,3.53435
32,51,3.58335,3.58336
33,51,3.63261,3.63262
34,51,3.68211,3.68211
35,51,3.73181,3.73182
36,51,3.78171,3.78172
37,51,3.83177,3.83178
38,51,3.88198,3.88199
39,51,3.93232,3.93232
40,51,3.98274,3.98275
41,51,4.03324,4.03325
42,51,4.08378,4.08379
43,51,4.13434,4.13435
44,51,4.18489,4.1849
45,51,4.2354,4.23541
46,51,4.28585,4.28585
47,51,4.3362,4.3362
48,51,4.38642,4.38642
49,51,4.43648,4.43649
50,51,4.48636,4.48636
51,51,4.53602,4.53602
52,51,4.58543,4.58543
53,51,4.63455,4.63455
54,51,4.68336,4.68336
55,51,4.73182,4.73182
56,51,4.77989,4.77989
57,51,4.82755,4.82755
58,51,4.87476,4.87476
59,51,4.92149,4.92149
60,51,4.9677,4.9677
61,51,5.01335,5.01335
62,51,5.05842,5.05842
63,51,5.10286,5.10286
1,52,2.28902,2.28902
2,52,2.32506,2.32506
3,52,2.36164,2.36164
4,52,2.39878,2.39878
5,52,2.43646,2.43646
6,52,2.47468,2.47468
7,52,2.51345,2.51345
8,52,2.55276,2.55276
9,52,2.5926,2.5926
10,52,2.63297,2.63298
11,52,2.67387,2.67388
12,52,2.7153,2.7153
13,52,2.75724,2.75724
14,52,2.79969,2.79969
15,52,2.84264,2.84265
16,52,2.88609,2.88609
17,52,2.93002,2.93003
18,52,2.97444,2.97444
19,52,3.01932,3.01933
20,52,3.06466,3.06467
21,52,3.11045,3.11045
22,52,3.15667,3.15668
23,52,3.20332,3.20332
24,52,3.25038,3.25038
25,52,3.29783,3.29784
26,52,3.34566,3.34567
27,52,3.39387,3.39387
28,52,3.44242,3.44243
29,52,3.4913,3.49131
30,52,3.54051,3.54051
31,52,3.59,3.59001
32,52,3.63978,3.63979
33,52,3.68982,3.68982
34,52,3.74009,3.7401
35,52,3.79058,3.79059
36,52,3.84126,3.84127
37,52,3.89212,3.89212
38,52,3.94312,3.94312
39,52,3.99424,3.99425
40,52,4.04546,4.04547
41,52,4.09676,4.09676
42,52,4.14809,4.1481
43,52,4.19945,4.19945
44,52,4.25079,4.2508
45,52,4.3021,4.30211
46,52,4.35334,4.35334
47,52,4.40448,4.40449
48,52,4.45549,4.4555
49,52,4.50635,4.50635
50,52,4.55701,4.55701
51,52,4.60745,4.60745
52,52,4.65764,4.65764
53,52,4.70753,4.70754
54,52,4.75711,4.75711
55,52,4.80633,4.80633
56,52,4.85517,4.85517
57,52,4.90358,4.90358
58,52,4.95153,4.95153
59,52,4.99899,4.99899
60,52,5.04593,5.04593
61,52,5.0923,5.0923
62,52,5.13807,5.13807
63,52,5.18322,5.18322
1,53,2.32507,2.32507
2,53,2.36167,2.36167
3,53,2.39883,2.39883
4,53,2.43655,2.43655
5,53,2.47483,2.47483
6,53,2.51365,2.51365
7,53,2.55303,2.55303
8,53,2.59296,2.59296
9,53,2.63343,2.63343
10,53,2.67444,2.67444
11,53,2.71598,2.71599
12,53,2.75806,2.75806
13,53,2.80066,2.80066
14,53,2.84378,2.84378
15,53,2.88741,2.88741
16,53,2.93154,2.93154
17,53,2.97617,2.97617
18,53,3.02128,3.02128
19,53,3.06687,3.06687
20,53,3.11292,3.11293
21,53,3.15943,3.15944
22,53,3.20638,3.20639
23,53,3.25376,3.25377
24,53,3.30156,3.30157
25,53,3.34976,3.34977
26,53,3.39835,3.39836
27,53,3.44731,3.44732
28,53,3.49663,3.49664
29,53,3.54628,3.54629
30,53,3.59626,3.59627
31,53,3.64654,3.64655
32,53,3.6971,3.69711
33,53,3.74792,3.74793
34,53,3.79899,3.79899
35,53,3.85027,3.85028
36,53,3.90175,3.90176
37,53,3.95341,3.95341
38,53,4.00521,4.00522
39,53,4.05714,4.05715
40,53,4.10917,4.10917
41,53,4.16127,4.16128
42,53,4.21342,4.21342
43,53,4.26558,4.26559
44,53,4.31774,4.31774
45,53,4.36985,4.36985
46,53,4.4219,4.4219
47,53,4.47384,4.47385
48,53,4.52566,4.52566
49,53,4.57731,4.57732
50,53,4.62877,4.62878
51,53,4.68001,4.68001
52,53,4.73098,4.73099
53,53,4.78167,4.78167
54,53,4.83202,4.83203
55,53,4.88202,4.88202
56,53,4.93162,4.93162
57,53,4.9808,4.9808
58,53,5.0295,5.02951
59,53,5.07771,5.07771
60,53,5.12539,5.12539
61,53,5.17249,5.17249
62,53,5.21899,5.21899
63,53,5.26484,5.26484
1,54,2.36168,2.36168
2,54,2.39886,2.39886
3,54,2.43661,2.43661
4,54,2.47492,2.47492
5,54,2.5138,2.5138
6,54,2.55324,2.55324
7,54,2.59323,2.59324
8,54,2.63379,2.63379
9,54,2.6749,2.6749
10,54,2.71655,2.71656
11,54,2.75875,2.75876
12,54,2.80149,2.8015
13,54,2.84476,2.84477
14,54,2.88856,2.88856
15,54,2.93288,2.93288
16,54,2.9777,2.97771
17,54,3.02303,3.02304
18,54,3.06886,3.06886
19,54,3.11516,3.11517
20,54,3.16194,3.16195
21,54,3.20918,3.20919
22,54,3.25688,3.25688
23,54,3.305,3.30501
24,54,3.35355,3.35356
25,54,3.40251,3.40252
26,54,3.45187,3.45187
27,54,3.5016,3.50161
28,54,3.55169,3.5517
29,54,3.60213,3.60214
30,54,3.65289,3.6529
31,54,3.70396,3.70397
32,54,3.75532,3.75533
33,54,3.80695,3.80695
34,54,3.85881,3.85882
35,54,3.91091,3.91091
36,54,3.9632,3.9632
37,54,4.01567,4.01567
38,54,4.06829,4.06829
39,54,4.12103,4.12104
40,54,4.17388,4.17389
41,54,4.2268,4.22681
42,54,4.27977,4.27977
43,54,4.33275,4.33276
44,54,4.38573,4.38573
45,54,4.43867,4.43867
46,54,4.49153,4.49153
47,54,4.5443,4.5443
48,54,4.59693,4.59693
49,54,4.64939,4.6494
50,54,4.70167,4.70167
51,54,4.75371,4.75371
52,54,4.80549,4.80549
53,54,4.85697,4.85697
54,54,4.90812,4.90812
55,54,4.9589,4.9589
56,54,5.00929,5.00929
57,54,5.05923,5.05923
58,54,5.10871,5.10871
59,54,5.15768,5.15768
60,54,5.2061,5.2061
61,54,5.25395,5.25395
62,54,5.30117,5.30117
63,54,5.34775,5.34775
1,55,2.39887,2.39887
2,55,2.43664,2.43664
3,55,2.47498,2.47498
4,55,2.5139,2.5139
5,55,2.55338,2.55339
6,55,2.59344,2.59345
7,55,2.63407,2.63407
8,55,2.67527,2.67527
9,55,2.71702,2.71702
10,55,2.75933,2.75934
11,55,2.8022,2.8022
12,55,2.84561,2.84561
13,55,2.88956,2.88957
14,55,2.93405,2.93405
15,55,2.97906,2.97907
16,55,3.0246,3.0246
17,55,3.07064,3.07064
18,55,3.11718,3.11719
19,55,3.16422,3.16423
20,55,3.21174,3.21174
21,55,3.25972,3.25973
22,55,3.30816,3.30817
23,55,3.35705,3.35706
24,55,3.40637,3.40637
25,55,3.4561,3.4561
26,55,3.50623,3.50623
27,55,3.55674,3.55675
28,55,3.60763,3.60763
29,55,3.65886,3.65886
30,55,3.71042,3.71043
31,55,3.76229,3.7623
32,55,3.81446,3.81447
33,55,3.8669,3.8669
34,55,3.91958,3.91959
35,55,3.97249,3.9725
36,55,4.02561,4.02561
37,55,4.0789,4.07891
38,55,4.13235,4.13236
39,55,4.18593,4.18593
40,55,4.23961,4.23961
41,55,4.29336,4.29337
42,55,4.34717,4.34717
43,55,4.40099,4.40099
44,55,4.4548,4.4548
45,55,4.50856,4.50857
46,55,4.56226,4.56227
47,55,4.61586,4.61586
48,55,4.66932,4.66932
49,55,4.72261,4.72262
50,55,4.77571,4.77571
51,55,4.82857,4.82857
52,55,4.88116,4.88116
53,55,4.93345,4.93346
54,55,4.98541,4.98541
55,55,5.03699,5.03699
56,55,5.08817,5.08817
57,55,5.1389,5.1389
58,55,5.18916,5.18916
59,55,5.2389,5.2389
60,55,5.28808,5.28808
61,55,5.33668,5.33668
62,55,5.38466,5.38466
63,55,5.43197,5.43197
1,56,2.43665,2.43665
2,56,2.47501,2.47501
3,56,2.51396,2.51396
4,56,2.55348,2.55349
5,56,2.59359,2.5936
6,56,2.63429,2.63429
7,56,2.67555,2.67556
8,56,2.7174,2.7174
9,56,2.75981,2.75981
10,56,2.80279,2.80279
11,56,2.84633,2.84633
12,56,2.89042,2.89042
13,56,2.93507,2.93507
14,56,2.98025,2.98026
15,56,3.02598,3.02598
16,56,3.07223,3.07223
17,56,3.119,3.119
18,56,3.16627,3.16628
19,56,3.21405,3.21405
20,56,3.26232,3.26232
21,56,3.31106,3.31106
22,56,3.36026,3.36027
23,56,3.40992,3.40992
24,56,3.46001,3.46001
25,56,3.51052,3.51053
26,56,3.56144,3.56145
27,56,3.61275,3.61276
28,56,3.66444,3.66444
29,56,3.71648,3.71648
30,56,3.76885,3.76886
31,56,3.82154,3.82155
32,56,3.87453,3.87453
33,56,3.92779,3.9278
34,56,3.98131,3.98131
35,56,4.03505,4.03506
36,56,4.089,4.08901
37,56,4.14314,4.14314
38,56,4.19743,4.19743
39,56,4.25185,4.25185
40,56,4.30637,4.30638
41,56,4.36098,4.36098
42,56,4.41562,4.41563
43,56,4.47029,4.4703
44,56,4.52495,4.52495
45,56,4.57956,4.57957
46,56,4.63411,4.63411
47,56,4.68855,4.68855
48,56,4.74285,4.74285
49,56,4.79698,4.79699
50,56,4.85091,4.85092
51,56,4.90461,4.90461
52,56,4.95803,4.95803
53,56,5.01114,5.01115
54,56,5.06392,5.06392
55,56,5.11631,5.11632
56,56,5.1683,5.1683
57,56,5.21983,5.21983
58,56,5.27088,5.27088
59,56,5.3214,5.3214
60,56,5.37136,5.37136
61,56,5.42072,5.42072
62,56,5.46945,5.46945
63,56,5.51751,5.51751
1,57,2.47502,2.47502
2,57,2.51399,2.51399
3,57,2.55354,2.55355
4,57,2.5937,2.5937
5,57,2.63444,2.63444
6,57,2.67577,2.67577
7,57,2.71769,2.71769
8,57,2.76019,2.76019
9,57,2.80327,2.80327
10,57,2.84692,2.84693
11,57,2.89115,2.89115
12,57,2.93594,2.93594
13,57,2.98129,2.98129
14,57,3.02719,3.02719
15,57,3.07363,3.07363
16,57,3.12061,3.12061
17,57,3.16811,3.16812
18,57,3.21614,3.21614
19,57,3.26466,3.26467
20,57,3.31369,3.31369
21,57,3.3632,3.3632
22,57,3.41318,3.41318
23,57,3.46362,3.46362
24,57,3.5145,3.5145
25,57,3.56581,3.56581
26,57,3.61753,3.61753
27,57,3.66965,3.66965
28,57,3.72214,3.72215
29,57,3.775,3.77501
30,57,3.8282,3.82821
31,57,3.88172,3.88173
32,57,3.93555,3.93555
33,57,3.98965,3.98965
34,57,4.044,4.04401
35,57,4.0986,4.0986
36,57,4.1534,4.1534
37,57,4.20838,4.20839
38,57,4.26353,4.26353
39,57,4.31881,4.31881
40,57,4.37419,4.37419
41,57,4.42965,4.42965
42,57,4.48516,4.48516
43,57,4.54069,4.54069
44,57,4.59621,4.59621
45,57,4.65168,4.65169
46,57,4.70708,4.70709
47,57,4.76238,4.76238
48,57,4.81754,4.81754
49,57,4.87252,4.87253
50,57,4.9273,4.92731
51,57,4.98184,4.98185
52,57,5.03611,5.03611
53,57,5.09006,5.09006
54,57,5.14366,5.14367
55,57,5.19689,5.19689
56,57,5.24969,5.24969
57,57,5.30203,5.30203
58,57,5.35388,5.35388
59,57,5.4052,5.4052
60,57,5.45595,5.45595
61,57,5.50609,5.50609
62,57,5.55558,5.55558
63,57,5.6044,5.6044
1,58,2.514,2.514
2,58,2.55358,2.55358
3,58,2.59376,2.59376
4,58,2.63454,2.63454
5,58,2.67592,2.67593
6,58,2.71791,2.71791
7,58,2.76049,2.76049
8,58,2.80366,2.80366
9,58,2.84741,2.84742
10,58,2.89176,2.89176
11,58,2.93668,2.93668
12,58,2.98217,2.98218
13,58,3.02824,3.02824
14,58,3.07486,3.07486
15,58,3.12203,3.12204
16,58,3.16975,3.16975
17,58,3.218,3.21801
18,58,3.26678,3.26679
19,58,3.31608,3.31608
20,58,3.36587,3.36588
21,58,3.41616,3.41617
22,58,3.46693,3.46693
23,58,3.51816,3.51816
24,58,3.56984,3.56985
25,58,3.62196,3.62196
26,58,3.6745,3.6745
27,58,3.72744,3.72744
28,58,3.78076,3.78076
29,58,3.83445,3.83445
30,58,3.88849,3.88849
31,58,3.94285,3.94286
32,58,3.99752,3.99753
33,58,4.05247,4.05248
34,58,4.10769,4.10769
35,58,4.16314,4.16314
36,58,4.2188,4.21881
37,58,4.27466,4.27466
38,58,4.33067,4.33067
39,58,4.38682,4.38682
40,58,4.44307,4.44308
41,58,4.49941,4.49941
42,58,4.55579,4.5558
43,58,4.6122,4.6122
44,58,4.66859,4.66859
45,58,4.72494,4.72494
46,58,4.78121,4.78121
47,58,4.83738,4.83738
48,58,4.8934,4.89341
49,58,4.94926,4.94926
50,58,5.0049,5.0049
51,58,5.0603,5.0603
52,58,5.11541,5.11542
53,58,5.17022,5.17022
54,58,5.22466,5.22467
55,58,5.27872,5.27873
56,58,5.33236,5.33236
57,58,5.38553,5.38553
58,58,5.43819,5.43819
59,58,5.49032,5.49032
60,58,5.54186,5.54187
61,58,5.5928,5.5928
62,58,5.64307,5.64307
63,58,5.69265,5.69265
1,59,2.55359,2.55359
2,59,2.59379,2.59379
3,59,2.6346,2.6346
4,59,2.67603,2.67603
5,59,2.71806,2.71807
6,59,2.76071,2.76071
7,59,2.80396,2.80396
8,59,2.84781,2.84781
9,59,2.89225,2.89226
10,59,2.9373,2.9373
11,59,2.98292,2.98293
12,59,3.02914,3.02914
13,59,3.07592,3.07593
14,59,3.12328,3.12328
15,59,3.1712,3.1712
16,59,3.21967,3.21967
17,59,3.26868,3.26868
18,59,3.31823,3.31823
19,59,3.3683,3.3683
20,59,3.41888,3.41888
21,59,3.46996,3.46996
22,59,3.52152,3.52153
23,59,3.57356,3.57357
24,59,3.62606,3.62606
25,59,3.679,3.679
26,59,3.73236,3.73237
27,59,3.78614,3.78614
28,59,3.8403,3.8403
29,59,3.89484,3.89484
30,59,3.94972,3.94973
31,59,4.00494,4.00495
32,59,4.06047,4.06048
33,59,4.11629,4.1163
34,59,4.17238,4.17238
35,59,4.2287,4.2287
36,59,4.28524,4.28524
37,59,4.34197,4.34198
38,59,4.39887,4.39887
39,59,4.4559,4.4559
40,59,4.51304,4.51305
41,59,4.57026,4.57027
42,59,4.62754,4.62754
43,59,4.68483,4.68483
44,59,4.74211,4.74211
45,59,4.79934,4.79935
46,59,4.8565,4.85651
47,59,4.91356,4.91356
48,59,4.97046,4.97047
49,59,5.0272,5.0272
50,59,5.08371,5.08372
51,59,5.13998,5.13999
52,59,5.19597,5.19597
53,59,5.25164,5.25164
54,59,5.30694,5.30694
55,59,5.36185,5.36185
56,59,5.41633,5.41633
57,59,5.47034,5.47034
58,59,5.52383,5.52383
59,59,5.57678,5.57678
60,59,5.62914,5.62914
61,59,5.68087,5.68087
62,59,5.73194,5.73194
63,59,5.7823,5.7823
1,60,2.5938,2.5938
2,60,2.63464,2.63464
3,60,2.67609,2.67609
4,60,2.71817,2.71817
5,60,2.76087,2.76087
6,60,2.80418,2.80418
7,60,2.84811,2.84811
8,60,2.89265,2.89265
9,60,2.9378,2.9378
10,60,2.98355,2.98355
11,60,3.0299,3.0299
12,60,3.07684,3.07684
13,60,3.12436,3.12437
14,60,3.17247,3.17247
15,60,3.22114,3.22114
16,60,3.27037,3.27037
17,60,3.32016,3.32016
18,60,3.37048,3.37049
19,60,3.42134,3.42134
20,60,3.47272,3.47272
21,60,3.5246,3.52461
22,60,3.57698,3.57698
23,60,3.62984,3.62984
24,60,3.68316,3.68317
25,60,3.73693,3.73694
26,60,3.79114,3.79114
27,60,3.84576,3.84576
28,60,3.90078,3.90078
29,60,3.95617,3.95617
30,60,4.01192,4.01193
31,60,4.06801,4.06802
32,60,4.12442,4.12442
33,60,4.18112,4.18112
34,60,4.23808,4.23808
35,60,4.29529,4.2953
36,60,4.35272,4.35273
37,60,4.41035,4.41035
38,60,4.46814,4.46814
39,60,4.52607,4.52607
40,60,4.58411,4.58412
41,60,4.64224,4.64224
42,60,4.70041,4.70041
43,60,4.7586,4.75861
44,60,4.81678,4.81679
45,60,4.87492,4.87492
46,60,4.93298,4.93299
47,60,4.99093,4.99094
48,60,5.04874,5.04874
49,60,5.10636,5.10636
50,60,5.16377,5.16377
51,60,5.22093,5.22093
52,60,5.2778,5.2778
53,60,5.33434,5.33434
54,60,5.39051,5.39051
55,60,5.44629,5.44629
56,60,5.50162,5.50162
57,60,5.55648,5.55648
58,60,5.61082,5.61082
59,60,5.6646,5.6646
60,60,5.71778,5.71778
61,60,5.77033,5.77033
62,60,5.8222,5.8222
63,60,5.87336,5.87336
1,61,2.63465,2.63465
2,61,2.67612,2.67613
3,61,2.71823,2.71824
4,61,2.76098,2.76098
5,61,2.80435,2.80435
6,61,2.84834,2.84834
7,61,2.89296,2.89297
8,61,2.93821,2.93821
9,61,2.98407,2.98407
10,61,3.03054,3.03054
11,61,3.07761,3.07762
12,61,3.12529,3.12529
13,61,3.17356,3.17357
14,61,3.22242,3.22243
15,61,3.27186,3.27186
16,61,3.32187,3.32187
17,61,3.37244,3.37244
18,61,3.42356,3.42356
19,61,3.47522,3.47522
20,61,3.52741,3.52741
21,61,3.58011,3.58011
22,61,3.63331,3.63331
23,61,3.687,3.687
24,61,3.74116,3.74117
25,61,3.79578,3.79579
26,61,3.85084,3.85084
27,61,3.90632,3.90632
28,61,3.96221,3.96221
29,61,4.01847,4.01847
30,61,4.0751,4.0751
31,61,4.13208,4.13208
32,61,4.18937,4.18937
33,61,4.24696,4.24696
34,61,4.30482,4.30482
35,61,4.36294,4.36294
36,61,4.42127,4.42127
37,61,4.4798,4.47981
38,61,4.53851,4.53851
39,61,4.59735,4.59735
40,61,4.6563,4.65631
41,61,4.71534,4.71534
42,61,4.77443,4.77443
43,61,4.83354,4.83354
44,61,4.89264,4.89264
45,61,4.95169,4.95169
46,61,5.01067,5.01067
47,61,5.06953,5.06953
48,61,5.12825,5.12825
49,61,5.18678,5.18678
50,61,5.24509,5.24509
51,61,5.30315,5.30315
52,61,5.36091,5.36091
53,61,5.41834,5.41834
54,61,5.4754,5.4754
55,61,5.53206,5.53206
56,61,5.58826,5.58826
57,61,5.64398,5.64398
58,61,5.69918,5.69918
59,61,5.7538,5.7538
60,61,5.80782,5.80782
61,61,5.8612,5.8612
62,61,5.91389,5.91389
63,61,5.96585,5.96585
1,62,2.67614,2.67614
2,62,2.71827,2.71827
3,62,2.76104,2.76104
4,62,2.80445,2.80446
5,62,2.84851,2.84851
6,62,2.8932,2.8932
7,62,2.93852,2.93852
8,62,2.98448,2.98448
9,62,3.03106,3.03106
10,62,3.07826,3.07826
11,62,3.12608,3.12608
12,62,3.17451,3.17451
13,62,3.22354,3.22354
14,62,3.27317,3.27317
15,62,3.32339,3.32339
16,62,3.37418,3.37419
17,62,3.42555,3.42555
18,62,3.47747,3.47748
19,62,3.52995,3.52995
20,62,3.58296,3.58296
21,62,3.63649,3.63649
22,62,3.69053,3.69053
23,62,3.74506,3.74507
24,62,3.80008,3.80008
25,62,3.85556,3.85556
26,62,3.91148,3.91149
27,62,3.96784,3.96784
28,62,4.0246,4.0246
29,62,4.08175,4.08176
30,62,4.13928,4.13928
31,62,4.19715,4.19715
32,62,4.25534,4.25534
33,62,4.31384,4.31384
34,62,4.37261,4.37262
35,62,4.43164,4.43164
36,62,4.4909,4.4909
37,62,4.55035,4.55035
38,62,4.60998,4.60998
39,62,4.66975,4.66975
40,62,4.72963,4.72963
41,62,4.7896,4.7896
42,62,4.84962,4.84962
43,62,4.90966,4.90966
44,62,4.96969,4.96969
45,62,5.02967,5.02967
46,62,5.08957,5.08958
47,62,5.14936,5.14936
48,62,5.209,5.209
49,62,5.26846,5.26846
50,62,5.32769,5.32769
51,62,5.38666,5.38666
52,62,5.44533,5.44533
53,62,5.50367,5.50367
54,62,5.56163,5.56163
55,62,5.61917,5.61917
56,62,5.67627,5.67627
57,62,5.73286,5.73286
58,62,5.78893,5.78893
59,62,5.84441,5.84441
60,62,5.89928,5.89928
61,62,5.9535,5.9535
62,62,6.00702,6.00702
63,62,6.0598,6.0598
1,63,2.71828,2.71828
2,63,2.76107,2.76107
3,63,2.80452,2.80452
4,63,2.84862,2.84862
5,63,2.89337,2.89337
6,63,2.93876,2.93876
7,63,2.9848,2.9848
8,63,3.03148,3.03148
9,63,3.07879,3.07879
10,63,3.12674,3.12674
11,63,3.17531,3.17531
12,63,3.2245,3.2245
13,63,3.27431,3.27431
14,63,3.32472,3.32472
15,63,3.37572,3.37573
16,63,3.42732,3.42732
17,63,3.4795,3.4795
18,63,3.53224,3.53224
19,63,3.58554,3.58554
20,63,3.63938,3.63938
21,63,3.69375,3.69376
22,63,3.74865,3.74865
23,63,3.80404,3.80404
24,63,3.85992,3.85992
25,63,3.91628,3.91628
26,63,3.97308,3.97308
27,63,4.03032,4.03032
28,63,4.08798,4.08798
29,63,4.14603,4.14603
30,63,4.20446,4.20446
31,63,4.26324,4.26324
32,63,4.32235,4.32236
33,63,4.38177,4.38177
34,63,4.44147,4.44147
35,63,4.50143,4.50143
36,63,4.56162,4.56162
37,63,4.62201,4.62201
38,63,4.68257,4.68257
39,63,4.74328,4.74329
40,63,4.80411,4.80411
41,63,4.86502,4.86502
42,63,4.92599,4.92599
43,63,4.98697,4.98698
44,63,5.04795,5.04795
45,63,5.10888,5.10888
46,63,5.16972,5.16972
47,63,5.23046,5.23046
48,63,5.29103,5.29103
49,63,5.35142,5.35142
50,63,5.41159,5.41159
51,63,5.47149,5.47149
52,63,5.53108,5.53108
53,63,5.59034,5.59034
54,63,5.64921,5.64921
55,63,5.70766,5.70766
56,63,5.76565,5.76565
57,63,5.82314,5.82314
58,63,5.88009,5.88009
59,63,5.93645,5.93645
60,63,5.99218,5.99218
61,63,6.04725,6.04725
62,63,6.10161,6.10161
63,63,6.15523,6.15523
