1,1,1.01736,1.03174
2,1,1.0174,1.04799
3,1,1.02386,1.06448
4,1,1.03346,1.08121
5,1,1.04489,1.0982
6,1,1.05753,1.11543
7,1,1.07106,1.1329
8,1,1.08529,1.15062
9,1,1.1001,1.16858
10,1,1.11541,1.18678
11,1,1.13117,1.20521
12,1,1.14733,1.22388
13,1,1.16386,1.24279
14,1,1.18074,1.26192
15,1,1.19794,1.28128
16,1,1.21544,1.30086
17,1,1.23323,1.32067
18,1,1.25129,1.34069
19,1,1.26962,1.36092
20,1,1.2882,1.38135
21,1,1.30702,1.40199
22,1,1.32606,1.42283
23,1,1.34533,1.44385
24,1,1.3648,1.46506
25,1,1.38447,1.48645
26,1,1.40433,1.50801
27,1,1.42436,1.52974
28,1,1.44457,1.55162
29,1,1.46492,1.57366
30,1,1.48543,1.59583
31,1,1.50606,1.61814
32,1,1.52682,1.64058
33,1,1.54769,1.66313
34,1,1.56866,1.68579
35,1,1.58971,1.70855
36,1,1.61083,1.7314
37,1,1.63202,1.75432
38,1,1.65324,1.7773
39,1,1.67449,1.80035
40,1,1.69576,1.82344
41,1,1.71702,1.84655
42,1,1.73827,1.86969
43,1,1.75947,1.89284
44,1,1.78062,1.91599
45,1,1.8017,1.93911
46,1,1.82267,1.96221
47,1,1.84353,1.98526
48,1,1.86424,2.00825
49,1,1.88478,2.03117
50,1,1.90512,2.05401
51,1,1.92522,2.07674
52,1,1.94506,2.09936
53,1,1.96457,2.12185
54,1,1.98372,2.1442
55,1,2.00244,2.16638
56,1,2.02063,2.1884
57,1,2.03819,2.21022
58,1,2.05496,2.23183
59,1,2.07068,2.25322
60,1,2.08494,2.27438
61,1,2.09695,2.29528
62,1,2.10504,2.31591
63,1,2.10509,2.33626
1,2,1.00357,1.04799
2,2,0.997137,1.06449
3,2,0.99711,1.08124
4,2,1.00116,1.09824
5,2,1.00791,1.11549
6,2,1.01655,1.13299
7,2,1.0266,1.15074
8,2,1.03774,1.16874
9,2,1.04976,1.18698
10,2,1.06253,1.20546
11,2,1.07595,1.22419
12,2,1.08992,1.24316
13,2,1.1044,1.26236
14,2,1.11933,1.28179
15,2,1.13469,1.30146
16,2,1.15043,1.32135
17,2,1.16653,1.34147
18,2,1.18296,1.3618
19,2,1.19971,1.38235
20,2,1.21676,1.40311
21,2,1.23409,1.42407
22,2,1.25168,1.44523
23,2,1.26952,1.46659
24,2,1.28759,1.48813
25,2,1.30588,1.50986
26,2,1.32438,1.53176
27,2,1.34307,1.55383
28,2,1.36194,1.57606
29,2,1.38097,1.59844
30,2,1.40015,1.62096
31,2,1.41947,1.64363
32,2,1.43891,1.66642
33,2,1.45845,1.68932
34,2,1.47808,1.71234
35,2,1.49779,1.73546
36,2,1.51756,1.75866
37,2,1.53736,1.78194
38,2,1.55719,1.80529
39,2,1.57702,1.8287
40,2,1.59684,1.85215
41,2,1.61661,1.87563
42,2,1.63633,1.89914
43,2,1.65597,1.92265
44,2,1.67549,1.94616
45,2,1.69489,1.96965
46,2,1.71412,1.99311
47,2,1.73315,2.01652
48,2,1.75195,2.03988
49,2,1.77049,2.06316
50,2,1.78871,2.08635
51,2,1.80656,2.10945
52,2,1.824,2.13242
53,2,1.84093,2.15527
54,2,1.85728,2.17796
55,2,1.87295,2.2005
56,2,1.88777,2.22286
57,2,1.90157,2.24502
58,2,1.91406,2.26698
59,2,1.92485,2.2887
60,2,1.93331,2.31019
61,2,1.93841,2.33142
62,2,1.9384,2.35238
63,2,1.93036,2.37305
1,3,0.9806,1.06449
2,3,0.970979,1.08125
3,3,0.966798,1.09827
4,3,0.966679,1.11554
5,3,0.969561,1.13306
6,3,0.974697,1.15083
7,3,0.981572,1.16886
8,3,0.989829,1.18714
9,3,0.999216,1.20567
10,3,1.00955,1.22445
11,3,1.02069,1.24347
12,3,1.03254,1.26273
13,3,1.04502,1.28224
14,3,1.05805,1.30198
15,3,1.0716,1.32195
16,3,1.0856,1.34216
17,3,1.10004,1.36259
18,3,1.11486,1.38324
19,3,1.13006,1.40412
20,3,1.14559,1.4252
21,3,1.16145,1.4465
22,3,1.1776,1.46799
23,3,1.19402,1.48968
24,3,1.21071,1.51157
25,3,1.22764,1.53364
26,3,1.24479,1.55588
27,3,1.26214,1.5783
28,3,1.27969,1.60088
29,3,1.2974,1.62361
30,3,1.31527,1.64649
31,3,1.33328,1.66951
32,3,1.35141,1.69266
33,3,1.36964,1.71593
34,3,1.38795,1.73931
35,3,1.40633,1.76279
36,3,1.42475,1.78636
37,3,1.44319,1.81
38,3,1.46163,1.83372
39,3,1.48006,1.8575
40,3,1.49843,1.88132
41,3,1.51674,1.90517
42,3,1.53495,1.92905
43,3,1.55303,1.95293
44,3,1.57096,1.97681
45,3,1.58869,2.00067
46,3,1.6062,2.02449
47,3,1.62344,2.04828
48,3,1.64036,2.072
49,3,1.65693,2.09565
50,3,1.67307,2.11921
51,3,1.68873,2.14267
52,3,1.70382,2.166
53,3,1.71825,2.18921
54,3,1.73191,2.21226
55,3,1.74465,2.23515
56,3,1.75629,2.25786
57,3,1.76658,2.28038
58,3,1.7752,2.30268
59,3,1.78167,2.32475
60,3,1.78534,2.34657
61,3,1.78526,2.36814
62,3,1.78009,2.38943
63,3,1.76807,2.41042
1,4,0.951392,1.08126
2,4,0.939901,1.09828
3,4,0.932945,1.11556
4,4,0.929723,1.1331
5,4,0.929488,1.1509
6,4,0.931635,1.16896
7,4,0.935699,1.18727
8,4,0.94133,1.20584
9,4,0.948263,1.22466
10,4,0.956298,1.24373
11,4,0.965281,1.26305
12,4,0.975089,1.28262
13,4,0.985627,1.30243
14,4,0.996818,1.32248
15,4,1.0086,1.34277
16,4,1.02091,1.36329
17,4,1.03371,1.38405
18,4,1.04695,1.40503
19,4,1.06062,1.42623
20,4,1.07466,1.44765
21,4,1.08906,1.46927
22,4,1.10379,1.49111
23,4,1.11882,1.51314
24,4,1.13414,1.53537
25,4,1.14972,1.55779
26,4,1.16553,1.58038
27,4,1.18157,1.60315
28,4,1.19781,1.62609
29,4,1.21422,1.64918
30,4,1.2308,1.67242
31,4,1.24751,1.6958
32,4,1.26434,1.71931
33,4,1.28127,1.74295
34,4,1.29828,1.7667
35,4,1.31534,1.79055
36,4,1.33243,1.81449
37,4,1.34953,1.83851
38,4,1.3666,1.8626
39,4,1.38364,1.88675
40,4,1.4006,1.91094
41,4,1.41745,1.93517
42,4,1.43417,1.95942
43,4,1.45073,1.98368
44,4,1.46707,2.00794
45,4,1.48318,2.03217
46,4,1.499,2.05637
47,4,1.51448,2.08053
48,4,1.52957,2.10463
49,4,1.54421,2.12865
50,4,1.55833,2.15258
51,4,1.57186,2.17641
52,4,1.5847,2.20011
53,4,1.59673,2.22368
54,4,1.60783,2.2471
55,4,1.61782,2.27035
56,4,1.62651,2.29342
57,4,1.63362,2.31629
58,4,1.6388,2.33894
59,4,1.64161,2.36136
60,4,1.64144,2.38353
61,4,1.63752,2.40543
62,4,1.6289,2.42705
63,4,1.61455,2.44838
1,5,0.917565,1.09828
2,5,0.904814,1.11557
3,5,0.895892,1.13313
4,5,0.890315,1.15095
5,5,0.887571,1.16903
6,5,0.887198,1.18737
7,5,0.888805,1.20597
8,5,0.892076,1.22483
9,5,0.896759,1.24394
10,5,0.902653,1.26332
11,5,0.909597,1.28294
12,5,0.917462,1.30282
13,5,0.926144,1.32294
14,5,0.935555,1.34331
15,5,0.945622,1.36392
16,5,0.956285,1.38476
17,5,0.967491,1.40584
18,5,0.979195,1.42715
19,5,0.991356,1.44869
20,5,1.00394,1.47044
21,5,1.01691,1.49241
22,5,1.03024,1.51459
23,5,1.0439,1.53697
24,5,1.05787,1.55955
25,5,1.07212,1.58232
26,5,1.08662,1.60527
27,5,1.10136,1.6284
28,5,1.1163,1.65169
29,5,1.13143,1.67515
30,5,1.14673,1.69876
31,5,1.16217,1.72251
32,5,1.17772,1.74639
33,5,1.19337,1.7704
34,5,1.20909,1.79452
35,5,1.22485,1.81874
36,5,1.24063,1.84306
37,5,1.2564,1.86746
38,5,1.27213,1.89193
39,5,1.2878,1.91646
40,5,1.30336,1.94104
41,5,1.31879,1.96565
42,5,1.33405,1.99028
43,5,1.3491,2.01492
44,5,1.36391,2.03956
45,5,1.37842,2.06417
46,5,1.39258,2.08876
47,5,1.40635,2.1133
48,5,1.41966,2.13777
49,5,1.43244,2.16217
50,5,1.44461,2.18648
51,5,1.45609,2.21068
52,5,1.46678,2.23476
53,5,1.47654,2.2587
54,5,1.48523,2.28249
55,5,1.49268,2.3061
56,5,1.49867,2.32953
57,5,1.50293,2.35276
58,5,1.50513,2.37577
59,5,1.50486,2.39854
60,5,1.50161,2.42106
61,5,1.49479,2.44331
62,5,1.48373,2.46528
63,5,1.46782,2.48694
1,6,0.880127,1.11558
2,6,0.866435,1.13314
3,6,0.856033,1.15097
4,6,0.848616,1.16907
5,6,0.843831,1.18744
6,6,0.84133,1.20606
7,6,0.840799,1.22496
8,6,0.841966,1.24412
9,6,0.844602,1.26353
10,6,0.848518,1.28321
11,6,0.853556,1.30314
12,6,0.859586,1.32333
13,6,0.866499,1.34377
14,6,0.874204,1.36446
15,6,0.882624,1.38539
16,6,0.891692,1.40657
17,6,0.901352,1.42798
18,6,0.911552,1.44963
19,6,0.922249,1.4715
20,6,0.933402,1.4936
21,6,0.944975,1.51591
22,6,0.956935,1.53844
23,6,0.96925,1.56118
24,6,0.981891,1.58411
25,6,0.994831,1.60724
26,6,1.00804,1.63055
27,6,1.0215,1.65404
28,6,1.03517,1.6777
29,6,1.04904,1.70153
30,6,1.06308,1.72551
31,6,1.07726,1.74963
32,6,1.09156,1.77389
33,6,1.10595,1.79828
34,6,1.1204,1.82278
35,6,1.13488,1.84738
36,6,1.14937,1.87208
37,6,1.16384,1.89687
38,6,1.17825,1.92172
39,6,1.19257,1.94664
40,6,1.20677,1.9716
41,6,1.2208,1.9966
42,6,1.23463,2.02162
43,6,1.24822,2.04665
44,6,1.26152,2.07167
45,6,1.27447,2.09668
46,6,1.28703,2.12165
47,6,1.29914,2.14657
48,6,1.31072,2.17144
49,6,1.32171,2.19622
50,6,1.33202,2.22091
51,6,1.34154,2.24549
52,6,1.35018,2.26995
53,6,1.35781,2.29427
54,6,1.36426,2.31843
55,6,1.36937,2.34242
56,6,1.37292,2.36622
57,6,1.37465,2.38981
58,6,1.37427,2.41318
59,6,1.37142,2.43631
60,6,1.36567,2.45919
61,6,1.3566,2.48179
62,6,1.34372,2.5041
63,6,1.32665,2.5261
1,7,0.839759,1.13315
2,7,0.825312,1.15099
3,7,0.813738,1.1691
4,7,0.804836,1.18748
5,7,0.798361,1.20613
6,7,0.794052,1.22506
7,7,0.791658,1.24425
8,7,0.790952,1.26371
9,7,0.791734,1.28343
10,7,0.793831,1.30342
11,7,0.797096,1.32367
12,7,0.8014,1.34417
13,7,0.806638,1.36493
14,7,0.812717,1.38595
15,7,0.819557,1.40721
16,7,0.827089,1.42872
17,7,0.835253,1.45047
18,7,0.843995,1.47246
19,7,0.853268,1.49467
20,7,0.863028,1.51712
21,7,0.873235,1.53979
22,7,0.883855,1.56267
23,7,0.894852,1.58576
24,7,0.906195,1.60906
25,7,0.917852,1.63255
26,7,0.929795,1.65623
27,7,0.941995,1.68009
28,7,0.954424,1.70412
29,7,0.967053,1.72832
30,7,0.979854,1.75268
31,7,0.992801,1.77718
32,7,1.00586,1.80183
33,7,1.01901,1.8266
34,7,1.03222,1.85148
35,7,1.04545,1.87648
36,7,1.05868,1.90157
37,7,1.07187,1.92674
38,7,1.08498,1.95199
39,7,1.09799,1.9773
40,7,1.11085,2.00265
41,7,1.12352,2.02804
42,7,1.13596,2.05346
43,7,1.14812,2.07888
44,7,1.15995,2.1043
45,7,1.1714,2.1297
46,7,1.18241,2.15506
47,7,1.19291,2.18038
48,7,1.20284,2.20563
49,7,1.21211,2.23081
50,7,1.22063,2.25589
51,7,1.22831,2.28086
52,7,1.23502,2.3057
53,7,1.24065,2.3304
54,7,1.24504,2.35494
55,7,1.248,2.37931
56,7,1.24936,2.40348
57,7,1.24886,2.42745
58,7,1.24624,2.45119
59,7,1.2412,2.47468
60,7,1.2334,2.49791
61,7,1.22252,2.52087
62,7,1.2082,2.54353
63,7,1.1902,2.56588
1,8,0.796957,1.15099
2,8,0.781869,1.16911
3,8,0.769325,1.18751
4,8,0.759192,1.20618
5,8,0.75129,1.22513
6,8,0.745425,1.24435
7,8,0.741399,1.26384
8,8,0.739024,1.28361
9,8,0.738128,1.30364
10,8,0.738557,1.32394
11,8,0.740176,1.34451
12,8,0.742866,1.36534
13,8,0.746523,1.38643
14,8,0.751056,1.40777
15,8,0.756386,1.42937
16,8,0.762444,1.45122
17,8,0.769167,1.47331
18,8,0.776499,1.49564
19,8,0.784391,1.51821
20,8,0.792797,1.54101
21,8,0.801676,1.56403
22,8,0.810989,1.58728
23,8,0.820699,1.61073
24,8,0.830772,1.63439
25,8,0.841176,1.65826
26,8,0.851878,1.68231
27,8,0.862848,1.70655
28,8,0.874054,1.73096
29,8,0.885468,1.75554
30,8,0.897059,1.78028
31,8,0.908796,1.80517
32,8,0.920648,1.8302
33,8,0.932585,1.85536
34,8,0.944574,1.88064
35,8,0.956581,1.90603
36,8,0.968573,1.93151
37,8,0.980514,1.95708
38,8,0.992367,1.98273
39,8,1.00409,2.00843
40,8,1.01565,2.03419
41,8,1.02699,2.05998
42,8,1.03808,2.08579
43,8,1.04885,2.11162
44,8,1.05926,2.13744
45,8,1.06926,2.16323
46,8,1.07877,2.189
47,8,1.08773,2.21471
48,8,1.09607,2.24036
49,8,1.1037,2.26594
50,8,1.11053,2.29141
51,8,1.11646,2.31677
52,8,1.12138,2.34201
53,8,1.12514,2.3671
54,8,1.12762,2.39203
55,8,1.12864,2.41678
56,8,1.12802,2.44133
57,8,1.12554,2.46567
58,8,1.12098,2.48979
59,8,1.11407,2.51365
60,8,1.10456,2.53725
61,8,1.09218,2.56057
62,8,1.07669,2.58359
63,8,1.0579,2.60629
1,9,0.752096,1.16912
2,9,0.736441,1.18752
3,9,0.723069,1.20621
4,9,0.711884,1.22518
5,9,0.702756,1.24442
6,9,0.695537,1.26394
7,9,0.690069,1.28375
8,9,0.686199,1.30382
9,9,0.683782,1.32417
10,9,0.682681,1.34479
11,9,0.682776,1.36568
12,9,0.683957,1.38684
13,9,0.686125,1.40826
14,9,0.689195,1.42994
15,9,0.693087,1.45188
16,9,0.697733,1.47407
17,9,0.703071,1.49651
18,9,0.709044,1.5192
19,9,0.715601,1.54212
20,9,0.722695,1.56528
21,9,0.730284,1.58866
22,9,0.738325,1.61227
23,9,0.746782,1.6361
24,9,0.755618,1.66013
25,9,0.764797,1.68437
26,9,0.774288,1.7088
27,9,0.784056,1.73342
28,9,0.794068,1.75822
29,9,0.804294,1.78319
30,9,0.814701,1.80832
31,9,0.825256,1.8336
32,9,0.835926,1.85902
33,9,0.846678,1.88458
34,9,0.857477,1.91025
35,9,0.868289,1.93604
36,9,0.879076,1.96193
37,9,0.889801,1.9879
38,9,0.900423,2.01395
39,9,0.910901,2.04006
40,9,0.921191,2.06622
41,9,0.931246,2.09242
42,9,0.941018,2.11864
43,9,0.950455,2.14487
44,9,0.959499,2.1711
45,9,0.968091,2.1973
46,9,0.976166,2.22347
47,9,0.983653,2.24959
48,9,0.990475,2.27565
49,9,0.996548,2.30162
50,9,1.00178,2.32749
51,9,1.00607,2.35326
52,9,1.0093,2.37889
53,9,1.01135,2.40437
54,9,1.01207,2.4297
55,9,1.01132,2.45484
56,9,1.00892,2.47978
57,9,1.00469,2.5045
58,9,0.998418,2.52899
59,9,0.989901,2.55323
60,9,0.978922,2.57721
61,9,0.965276,2.60089
62,9,0.948783,2.62427
63,9,0.929304,2.64733
1,10,0.705471,1.18753
2,10,0.689303,1.20622
3,10,0.675201,1.2252
4,10,0.663098,1.24447
5,10,0.652896,1.26402
6,10,0.644481,1.28385
7,10,0.63773,1.30396
8,10,0.632515,1.32435
9,10,0.628713,1.34502
10,10,0.626208,1.36597
11,10,0.624891,1.38719
12,10,0.624663,1.40868
13,10,0.625432,1.43044
14,10,0.627116,1.45246
15,10,0.629641,1.47475
16,10,0.63294,1.49729
17,10,0.63695,1.52008
18,10,0.641615,1.54312
19,10,0.646885,1.56641
20,10,0.652711,1.58993
21,10,0.659048,1.61368
22,10,0.665856,1.63766
23,10,0.673095,1.66186
24,10,0.680727,1.68628
25,10,0.688715,1.71089
26,10,0.697024,1.73571
27,10,0.705621,1.76072
28,10,0.714469,1.78591
29,10,0.723536,1.81127
30,10,0.732788,1.83679
31,10,0.74219,1.86247
32,10,0.751708,1.8883
33,10,0.761305,1.91426
34,10,0.770946,1.94034
35,10,0.780593,1.96653
36,10,0.790208,1.99282
37,10,0.79975,2.01921
38,10,0.809177,2.04567
39,10,0.818445,2.07219
40,10,0.827509,2.09876
41,10,0.836318,2.12537
42,10,0.844823,2.15201
43,10,0.852969,2.17865
44,10,0.860696,2.20529
45,10,0.867943,2.2319
46,10,0.874642,2.25849
47,10,0.880722,2.28502
48,10,0.886104,2.31148
49,10,0.890703,2.33786
50,10,0.894427,2.36415
51,10,0.897176,2.39032
52,10,0.898839,2.41635
53,10,0.899295,2.44224
54,10,0.898413,2.46796
55,10,0.896049,2.49349
56,10,0.89205,2.51883
57,10,0.886249,2.54394
58,10,0.878474,2.56882
59,10,0.868547,2.59344
60,10,0.856293,2.61779
61,10,0.841551,2.64185
62,10,0.82418,2.6656
63,10,0.804076,2.68902
1,11,0.657322,1.20623
2,11,0.640676,1.22522
3,11,0.625918,1.2445
4,11,0.612997,1.26407
5,11,0.60184,1.28392
6,11,0.592358,1.30407
7,11,0.584452,1.3245
8,11,0.578018,1.34521
9,11,0.572952,1.36621
10,11,0.569154,1.38748
11,11,0.566527,1.40903
12,11,0.564983,1.43086
13,11,0.564437,1.45296
14,11,0.564812,1.47533
15,11,0.566039,1.49797
16,11,0.568052,1.52086
17,11,0.570792,1.54402
18,11,0.574202,1.56742
19,11,0.578232,1.59107
20,11,0.582834,1.61497
21,11,0.587963,1.63909
22,11,0.593576,1.66345
23,11,0.599634,1.68803
24,11,0.606097,1.71283
25,11,0.612927,1.73784
26,11,0.620088,1.76304
27,11,0.627545,1.78845
28,11,0.63526,1.81403
29,11,0.6432,1.83979
30,11,0.651328,1.86572
31,11,0.659608,1.8918
32,11,0.668004,1.91803
33,11,0.676479,1.9444
34,11,0.684994,1.97089
35,11,0.693511,1.9975
36,11,0.701988,2.02421
37,11,0.710383,2.051
38,11,0.718653,2.07788
39,11,0.726751,2.10482
40,11,0.73463,2.13181
41,11,0.742238,2.15884
42,11,0.749523,2.18589
43,11,0.756427,2.21296
44,11,0.762891,2.24001
45,11,0.768851,2.26705
46,11,0.774238,2.29405
47,11,0.778979,2.321
48,11,0.782996,2.34788
49,11,0.786204,2.37468
50,11,0.788512,2.40138
51,11,0.789821,2.42796
52,11,0.790025,2.4544
53,11,0.78901,2.4807
54,11,0.786652,2.50682
55,11,0.78282,2.53276
56,11,0.777374,2.55849
57,11,0.770168,2.584
58,11,0.761053,2.60927
59,11,0.749879,2.63428
60,11,0.736502,2.65902
61,11,0.72079,2.68345
62,11,0.702634,2.70758
63,11,0.681951,2.73136
1,12,0.607848,1.22522
2,12,0.590751,1.24451
3,12,0.575391,1.2641
4,12,0.561729,1.28397
5,12,0.54971,1.30414
6,12,0.539263,1.3246
7,12,0.53031,1.34535
8,12,0.522763,1.36639
9,12,0.516537,1.38772
10,12,0.511544,1.40933
11,12,0.5077,1.43122
12,12,0.504925,1.4534
13,12,0.503143,1.47585
14,12,0.502283,1.49857
15,12,0.502278,1.52156
16,12,0.503067,1.54481
17,12,0.504592,1.56833
18,12,0.506799,1.5921
19,12,0.509638,1.61613
20,12,0.513061,1.6404
21,12,0.517023,1.66491
22,12,0.521482,1.68965
23,12,0.526396,1.71462
24,12,0.531726,1.7398
25,12,0.537434,1.7652
26,12,0.543481,1.79081
27,12,0.549831,1.81661
28,12,0.556446,1.8426
29,12,0.563291,1.86876
30,12,0.570328,1.8951
31,12,0.577519,1.92159
32,12,0.584827,1.94824
33,12,0.592213,1.97502
34,12,0.599636,2.00193
35,12,0.607057,2.02895
36,12,0.614433,2.05608
37,12,0.62172,2.0833
38,12,0.628872,2.1106
39,12,0.635842,2.13797
40,12,0.642579,2.16538
41,12,0.649032,2.19284
42,12,0.655146,2.22032
43,12,0.660861,2.24781
44,12,0.666118,2.27529
45,12,0.67085,2.30275
46,12,0.674989,2.33018
47,12,0.678461,2.35755
48,12,0.681188,2.38486
49,12,0.683085,2.41208
50,12,0.684064,2.43919
51,12,0.68403,2.46619
52,12,0.682879,2.49305
53,12,0.680505,2.51976
54,12,0.676791,2.5463
55,12,0.671618,2.57265
56,12,0.66486,2.59878
57,12,0.656387,2.6247
58,12,0.646069,2.65036
59,12,0.633779,2.67577
60,12,0.619398,2.70089
61,12,0.602815,2.72571
62,12,0.583943,2.75021
63,12,0.562714,2.77438
1,13,0.557216,1.24452
2,13,0.539688,1.26411
3,13,0.523767,1.284
4,13,0.509424,1.30419
5,13,0.496617,1.32468
6,13,0.48529,1.34546
7,13,0.475377,1.36654
8,13,0.466809,1.38791
9,13,0.459512,1.40957
10,13,0.453412,1.43152
11,13,0.448433,1.45376
12,13,0.444506,1.47628
13,13,0.441561,1.49909
14,13,0.439533,1.52217
15,13,0.43836,1.54552
16,13,0.437984,1.56914
17,13,0.438349,1.59303
18,13,0.439404,1.61718
19,13,0.441099,1.64158
20,13,0.443388,1.66623
21,13,0.446226,1.69112
22,13,0.449571,1.71626
23,13,0.45338,1.74162
24,13,0.457615,1.7672
25,13,0.462236,1.793
26,13,0.467204,1.81901
27,13,0.472482,1.84522
28,13,0.478032,1.87161
29,13,0.483815,1.89819
30,13,0.489795,1.92494
31,13,0.495931,1.95186
32,13,0.502185,1.97892
33,13,0.508517,2.00612
34,13,0.514886,2.03346
35,13,0.521248,2.06091
36,13,0.527561,2.08846
37,13,0.533779,2.11611
38,13,0.539855,2.14384
39,13,0.545739,2.17163
40,13,0.55138,2.19948
41,13,0.556725,2.22737
42,13,0.561718,2.25528
43,13,0.566297,2.2832
44,13,0.570403,2.31112
45,13,0.573968,2.33901
46,13,0.576923,2.36687
47,13,0.579195,2.39468
48,13,0.580705,2.42241
49,13,0.581371,2.45006
50,13,0.581107,2.47761
51,13,0.57982,2.50503
52,13,0.577412,2.53231
53,13,0.573781,2.55944
54,13,0.568822,2.5864
55,13,0.562422,2.61316
56,13,0.554468,2.63971
57,13,0.544845,2.66603
58,13,0.533441,2.6921
59,13,0.520144,2.7179
60,13,0.504853,2.74342
61,13,0.487477,2.76863
62,13,0.467942,2.79352
63,13,0.446192,2.81807
1,14,0.505571,1.26412
2,14,0.487626,1.28402
3,14,0.471176,1.30422
4,14,0.4562,1.32473
5,14,0.442664,1.34554
6,14,0.430524,1.36665
7,14,0.419727,1.38806
8,14,0.410215,1.40977
9,14,0.401925,1.43177
10,14,0.394793,1.45407
11,14,0.388754,1.47666
12,14,0.383746,1.49953
13,14,0.379705,1.52269
14,14,0.376573,1.54614
15,14,0.374292,1.56986
16,14,0.372807,1.59385
17,14,0.372065,1.61812
18,14,0.372018,1.64264
19,14,0.372617,1.66743
20,14,0.373816,1.69247
21,14,0.375573,1.71776
22,14,0.377844,1.74328
23,14,0.380588,1.76904
24,14,0.383765,1.79503
25,14,0.387336,1.82124
26,14,0.391261,1.84766
27,14,0.395503,1.87427
28,14,0.400021,1.90109
29,14,0.404779,1.92809
30,14,0.409736,1.95526
31,14,0.414853,1.98259
32,14,0.42009,2.01008
33,14,0.425405,2.03771
34,14,0.430755,2.06548
35,14,0.436098,2.09336
36,14,0.441387,2.12135
37,14,0.446577,2.14943
38,14,0.451619,2.1776
39,14,0.456462,2.20583
40,14,0.461054,2.23412
41,14,0.46534,2.26245
42,14,0.469262,2.2908
43,14,0.47276,2.31916
44,14,0.475772,2.34751
45,14,0.47823,2.37585
46,14,0.480065,2.40415
47,14,0.481204,2.43239
48,14,0.481571,2.46056
49,14,0.481083,2.48864
50,14,0.479657,2.51662
51,14,0.477203,2.54448
52,14,0.473629,2.57219
53,14,0.468838,2.59975
54,14,0.462731,2.62713
55,14,0.455206,2.65431
56,14,0.446159,2.68128
57,14,0.435489,2.70801
58,14,0.423094,2.73449
59,14,0.40888,2.76071
60,14,0.392757,2.78662
61,14,0.374649,2.81223
62,14,0.354493,2.83751
63,14,0.332242,2.86245
1,15,0.453037,1.28402
2,15,0.434686,1.30424
3,15,0.417732,1.32476
4,15,0.40216,1.34559
5,15,0.387944,1.36673
6,15,0.375048,1.38817
7,15,0.363429,1.40992
8,15,0.353038,1.43197
9,15,0.343822,1.45432
10,15,0.335726,1.47697
11,15,0.328694,1.49991
12,15,0.322669,1.52315
13,15,0.317595,1.54667
14,15,0.313418,1.57049
15,15,0.310084,1.59458
16,15,0.307544,1.61895
17,15,0.305747,1.6436
18,15,0.304645,1.66851
19,15,0.304194,1.69369
20,15,0.304348,1.71912
21,15,0.305065,1.74481
22,15,0.306303,1.77074
23,15,0.30802,1.7969
24,15,0.310178,1.8233
25,15,0.312736,1.84992
26,15,0.315655,1.87675
27,15,0.318897,1.90379
28,15,0.322421,1.93103
29,15,0.326189,1.95845
30,15,0.33016,1.98605
31,15,0.334294,2.01381
32,15,0.33855,2.04174
33,15,0.342885,2.0698
34,15,0.347256,2.098
35,15,0.351618,2.12633
36,15,0.355925,2.15476
37,15,0.36013,2.18328
38,15,0.364181,2.21189
39,15,0.368029,2.24057
40,15,0.371619,2.2693
41,15,0.374895,2.29807
42,15,0.377799,2.32687
43,15,0.380271,2.35568
44,15,0.382246,2.38448
45,15,0.383657,2.41326
46,15,0.384437,2.442
47,15,0.38451,2.47069
48,15,0.383803,2.49931
49,15,0.382236,2.52783
50,15,0.379725,2.55625
51,15,0.376187,2.58455
52,15,0.371531,2.6127
53,15,0.365668,2.64069
54,15,0.358504,2.6685
55,15,0.349944,2.69611
56,15,0.339896,2.7235
57,15,0.328266,2.75066
58,15,0.314964,2.77756
59,15,0.299906,2.80418
60,15,0.283016,2.83051
61,15,0.264227,2.85652
62,15,0.243483,2.8822
63,15,0.220745,2.90752
1,16,0.399725,1.30425
2,16,0.380975,1.32478
3,16,0.363537,1.34562
4,16,0.3474,1.36678
5,16,0.332544,1.38825
6,16,0.318939,1.41003
7,16,0.30655,1.43212
8,16,0.295337,1.45452
9,16,0.285253,1.47722
10,16,0.276253,1.50022
11,16,0.268286,1.52353
12,16,0.261302,1.54713
13,16,0.255251,1.57103
14,16,0.250084,1.59522
15,16,0.245751,1.61969
16,16,0.242206,1.64445
17,16,0.239402,1.66948
18,16,0.237293,1.69479
19,16,0.235836,1.72036
20,16,0.234988,1.74619
21,16,0.234707,1.77228
22,16,0.234952,1.79862
23,16,0.235682,1.8252
24,16,0.236859,1.85201
25,16,0.238441,1.87905
26,16,0.240391,1.90631
27,16,0.242669,1.93377
28,16,0.245235,1.96143
29,16,0.24805,1.98929
30,16,0.251072,2.01732
31,16,0.25426,2.04553
32,16,0.257573,2.07389
33,16,0.260968,2.1024
34,16,0.264399,2.13104
35,16,0.267822,2.15981
36,16,0.271188,2.18869
37,16,0.27445,2.21766
38,16,0.277557,2.24672
39,16,0.280455,2.27585
40,16,0.283091,2.30504
41,16,0.285409,2.33426
42,16,0.287348,2.36352
43,16,0.288847,2.39278
44,16,0.289843,2.42203
45,16,0.290268,2.45127
46,16,0.290054,2.48046
47,16,0.289129,2.5096
48,16,0.287417,2.53867
49,16,0.284841,2.56764
50,16,0.281322,2.59651
51,16,0.276776,2.62525
52,16,0.271118,2.65384
53,16,0.264263,2.68227
54,16,0.256124,2.71052
55,16,0.246613,2.73857
56,16,0.235642,2.76639
57,16,0.223129,2.79397
58,16,0.208992,2.8213
59,16,0.193155,2.84834
60,16,0.175551,2.87508
61,16,0.156121,2.9015
62,16,0.134816,2.92759
63,16,0.111602,2.95331
1,17,0.345732,1.32478
2,17,0.326589,1.34564
3,17,0.308682,1.36681
4,17,0.292005,1.38831
5,17,0.276541,1.41011
6,17,0.262267,1.43224
7,17,0.249153,1.45467
8,17,0.237165,1.47742
9,17,0.226265,1.50048
10,17,0.216413,1.52385
11,17,0.207563,1.54752
12,17,0.199673,1.5715
13,17,0.192698,1.59577
14,17,0.186591,1.62034
15,17,0.181309,1.6452
16,17,0.176807,1.67034
17,17,0.173042,1.69577
18,17,0.16997,1.72148
19,17,0.167551,1.74745
20,17,0.165742,1.77369
21,17,0.164504,1.80019
22,17,0.163795,1.82694
23,17,0.163577,1.85394
24,17,0.163811,1.88118
25,17,0.164456,1.90864
26,17,0.165474,1.93633
27,17,0.166825,1.96422
28,17,0.16847,1.99232
29,17,0.170369,2.02062
30,17,0.172479,2.04909
31,17,0.17476,2.07774
32,17,0.177169,2.10655
33,17,0.179663,2.13551
34,17,0.182194,2.1646
35,17,0.184719,2.19382
36,17,0.187188,2.22316
37,17,0.189551,2.25259
38,17,0.191758,2.2821
39,17,0.193755,2.31169
40,17,0.195487,2.34134
41,17,0.196896,2.37102
42,17,0.197923,2.40074
43,17,0.198505,2.43046
44,17,0.198579,2.46017
45,17,0.198079,2.48987
46,17,0.196934,2.51952
47,17,0.195074,2.54912
48,17,0.192424,2.57864
49,17,0.188909,2.60808
50,17,0.184452,2.6374
51,17,0.178971,2.66659
52,17,0.172386,2.69563
53,17,0.164616,2.72451
54,17,0.155576,2.75321
55,17,0.145187,2.78169
56,17,0.133366,2.80996
57,17,0.120038,2.83797
58,17,0.105127,2.86573
59,17,0.0885667,2.89319
60,17,0.0702947,2.92036
61,17,0.0502583,2.9472
62,17,0.0284146,2.97369
63,17,0.00473154,2.99982
1,18,0.291144,1.34565
2,18,0.271612,1.36683
3,18,0.25325,1.38834
4,18,0.236053,1.41017
5,18,0.220008,1.43232
6,18,0.205097,1.45479
7,18,0.191296,1.47758
8,18,0.178576,1.50069
9,18,0.166905,1.52411
10,18,0.156246,1.54785
11,18,0.146562,1.57189
12,18,0.137814,1.59624
13,18,0.12996,1.6209
14,18,0.122961,1.64585
15,18,0.116775,1.67111
16,18,0.111361,1.69665
17,18,0.106678,1.72248
18,18,0.102687,1.74858
19,18,0.0993467,1.77497
20,18,0.0966182,1.80162
21,18,0.094462,1.82854
22,18,0.0928393,1.85572
23,18,0.0917114,1.88314
24,18,0.0910394,1.9108
25,18,0.0907846,1.9387
26,18,0.090908,1.96682
27,18,0.0913703,1.99516
28,18,0.0921316,2.0237
29,18,0.0931515,2.05244
30,18,0.0943887,2.08136
31,18,0.095801,2.11046
32,18,0.0973453,2.13972
33,18,0.0989772,2.16914
34,18,0.100651,2.19869
35,18,0.102319,2.22837
36,18,0.103934,2.25817
37,18,0.105444,2.28806
38,18,0.106798,2.31804
39,18,0.107941,2.3481
40,18,0.108818,2.37821
41,18,0.10937,2.40836
42,18,0.109538,2.43854
43,18,0.109259,2.46873
44,18,0.108469,2.49892
45,18,0.107101,2.52908
46,18,0.105087,2.5592
47,18,0.102355,2.58926
48,18,0.0988335,2.61925
49,18,0.094447,2.64915
50,18,0.0891197,2.67893
51,18,0.0827743,2.70858
52,18,0.0753324,2.73808
53,18,0.0667156,2.76742
54,18,0.0568456,2.79656
55,18,0.0456454,2.8255
56,18,0.0330398,2.85421
57,18,0.0189566,2.88266
58,18,0.00332798,2.91085
59,18,-0.0139088,2.93876
60,18,-0.0328096,2.96635
61,18,-0.0534227,2.99361
62,18,-0.0757872,3.02052
63,18,-0.0999324,3.04706
1,19,0.23604,1.36684
2,19,0.216122,1.38836
3,19,0.197314,1.4102
4,19,0.179613,1.43238
5,19,0.163011,1.45488
6,19,0.147492,1.4777
7,19,0.133037,1.50085
8,19,0.119621,1.52432
9,19,0.107216,1.54811
10,19,0.0957924,1.57222
11,19,0.0853158,1.59665
12,19,0.0757517,1.62138
13,19,0.0670637,1.64642
14,19,0.0592149,1.67177
15,19,0.0521675,1.69742
16,19,0.0458837,1.72337
17,19,0.0403254,1.7496
18,19,0.0354548,1.77612
19,19,0.0312338,1.80292
20,19,0.0276246,1.83
21,19,0.0245896,1.85734
22,19,0.0220907,1.88494
23,19,0.0200904,1.91279
24,19,0.0185505,1.94089
25,19,0.0174329,1.96923
26,19,0.0166988,1.99779
27,19,0.0163093,2.02657
28,19,0.0162244,2.05557
29,19,0.0164038,2.08476
30,19,0.0168059,2.11414
31,19,0.0173885,2.14369
32,19,0.0181078,2.17342
33,19,0.0189193,2.20329
34,19,0.0197766,2.23331
35,19,0.020632,2.26346
36,19,0.0214364,2.29373
37,19,0.0221387,2.32409
38,19,0.0226862,2.35455
39,19,0.0230242,2.38507
40,19,0.0230964,2.41566
41,19,0.022844,2.44629
42,19,0.0222066,2.47694
43,19,0.0211216,2.50761
44,19,0.0195243,2.53827
45,19,0.0173483,2.5689
46,19,0.014525,2.5995
47,19,0.0109841,2.63004
48,19,0.00665363,2.6605
49,19,0.00146016,2.69087
50,19,-0.00467087,2.72112
51,19,-0.0118148,2.75124
52,19,-0.0200475,2.7812
53,19,-0.0294444,2.811
54,19,-0.0400805,2.8406
55,19,-0.052029,2.86999
56,19,-0.0653609,2.89915
57,19,-0.080144,2.92806
58,19,-0.0964417,2.95669
59,19,-0.114312,2.98503
60,19,-0.133808,3.01306
61,19,-0.154972,3.04075
62,19,-0.177842,3.06808
63,19,-0.202445,3.09504
1,20,0.180492,1.38836
2,20,0.160188,1.41022
3,20,0.140942,1.43241
4,20,0.122751,1.45493
5,20,0.105611,1.47779
6,20,0.0895077,1.50097
7,20,0.0744262,1.52449
8,20,0.0603458,1.54833
9,20,0.0472427,1.57249
10,20,0.03509,1.59698
11,20,0.0238588,1.62179
12,20,0.0135179,1.64691
13,20,0.00403479,1.67235
14,20,-0.00462406,1.6981
15,20,-0.0124931,1.72415
16,20,-0.0196074,1.7505
17,20,-0.0260023,1.77715
18,20,-0.0317135,1.80409
19,20,-0.0367771,1.83131
20,20,-0.041229,1.85881
21,20,-0.0451055,1.88659
22,20,-0.0484433,1.91462
23,20,-0.0512791,1.94291
24,20,-0.05365,1.97146
25,20,-0.0555937,2.00024
26,20,-0.0571482,2.02925
27,20,-0.0583525,2.05849
28,20,-0.059246,2.08794
29,20,-0.0598692,2.11759
30,20,-0.0602635,2.14743
31,20,-0.0604714,2.17745
32,20,-0.0605368,2.20764
33,20,-0.0605047,2.23799
34,20,-0.0604217,2.26848
35,20,-0.0603359,2.29911
36,20,-0.060297,2.32985
37,20,-0.0603566,2.36069
38,20,-0.060568,2.39163
39,20,-0.0609862,2.42263
40,20,-0.0616683,2.4537
41,20,-0.0626733,2.48481
42,20,-0.0640622,2.51595
43,20,-0.065898,2.5471
44,20,-0.0682453,2.57824
45,20,-0.0711709,2.60936
46,20,-0.0747431,2.64044
47,20,-0.079032,2.67146
48,20,-0.0841088,2.7024
49,20,-0.090046,2.73324
50,20,-0.0969171,2.76397
51,20,-0.104796,2.79456
52,20,-0.113756,2.825
53,20,-0.123871,2.85527
54,20,-0.135212,2.88533
55,20,-0.147851,2.91519
56,20,-0.161855,2.94481
57,20,-0.177288,2.97417
58,20,-0.19421,3.00325
59,20,-0.212677,3.03204
60,20,-0.232736,3.06051
61,20,-0.25443,3.08864
62,20,-0.277792,3.1164
63,20,-0.302849,3.14378
1,21,0.124563,1.41023
2,21,0.103874,1.43243
3,21,0.0841956,1.45497
4,21,0.065527,1.47784
5,21,0.047864,1.50106
6,21,0.0311974,1.52461
7,21,0.015514,1.54849
8,21,0.000796598,1.57271
9,21,-0.012975,1.59726
10,21,-0.0258241,1.62213
11,21,-0.0377761,1.64733
12,21,-0.0488586,1.67285
13,21,-0.0591008,1.69869
14,21,-0.0685331,1.72484
15,21,-0.0771871,1.7513
16,21,-0.0850949,1.77807
17,21,-0.0922897,1.80514
18,21,-0.0988049,1.8325
19,21,-0.104674,1.86015
20,21,-0.109933,1.88809
21,21,-0.114615,1.91629
22,21,-0.118755,1.94477
23,21,-0.12239,1.97351
24,21,-0.125556,2.0025
25,21,-0.128289,2.03174
26,21,-0.130628,2.06121
27,21,-0.13261,2.0909
28,21,-0.134275,2.12082
29,21,-0.135662,2.15093
30,21,-0.136815,2.18125
31,21,-0.137773,2.21174
32,21,-0.138583,2.24241
33,21,-0.139289,2.27323
34,21,-0.139938,2.30421
35,21,-0.140578,2.33531
36,21,-0.14126,2.36654
37,21,-0.142035,2.39787
38,21,-0.142957,2.42929
39,21,-0.144082,2.46078
40,21,-0.145467,2.49234
41,21,-0.147173,2.52394
42,21,-0.149259,2.55557
43,21,-0.15179,2.58721
44,21,-0.154831,2.61884
45,21,-0.158448,2.65045
46,21,-0.162709,2.68202
47,21,-0.167686,2.71352
48,21,-0.173447,2.74495
49,21,-0.180067,2.77628
50,21,-0.187616,2.80749
51,21,-0.196168,2.83857
52,21,-0.205794,2.86949
53,21,-0.216568,2.90023
54,21,-0.228558,2.93077
55,21,-0.241832,2.9611
56,21,-0.256457,2.99118
57,21,-0.272494,3.02101
58,21,-0.29,3.05055
59,21,-0.309028,3.07979
60,21,-0.329623,3.1087
61,21,-0.351827,3.13727
62,21,-0.37567,3.16548
63,21,-0.401179,3.19329
1,22,0.0683126,1.43243
2,22,0.047239,1.45498
3,22,0.0271325,1.47788
4,22,0.00799482,1.50112
5,22,-0.0101769,1.5247
6,22,-0.0273896,1.54862
7,22,-0.043654,1.57288
8,22,-0.0589843,1.59748
9,22,-0.0733977,1.62241
10,22,-0.0869143,1.64767
11,22,-0.0995566,1.67327
12,22,-0.111349,1.69919
13,22,-0.122317,1.72544
14,22,-0.13249,1.752
15,22,-0.141894,1.77888
16,22,-0.150561,1.80607
17,22,-0.158521,1.83357
18,22,-0.165806,1.86136
19,22,-0.172446,1.88945
20,22,-0.178476,1.91782
21,22,-0.183928,1.94647
22,22,-0.188837,1.9754
23,22,-0.193236,2.00459
24,22,-0.197161,2.03404
25,22,-0.200649,2.06373
26,22,-0.203735,2.09367
27,22,-0.206458,2.12383
28,22,-0.208857,2.15421
29,22,-0.210972,2.18481
30,22,-0.212843,2.2156
31,22,-0.214513,2.24657
32,22,-0.216027,2.27772
33,22,-0.217429,2.30903
34,22,-0.218767,2.34049
35,22,-0.220089,2.37209
36,22,-0.221446,2.4038
37,22,-0.222889,2.43563
38,22,-0.224474,2.46754
39,22,-0.226257,2.49954
40,22,-0.228294,2.53159
41,22,-0.230647,2.56369
42,22,-0.233377,2.59581
43,22,-0.236547,2.62795
44,22,-0.240224,2.66008
45,22,-0.244474,2.69219
46,22,-0.249366,2.72425
47,22,-0.25497,2.75626
48,22,-0.261357,2.78818
49,22,-0.268597,2.82
50,22,-0.276764,2.85171
51,22,-0.285929,2.88327
52,22,-0.296163,2.91468
53,22,-0.307538,2.9459
54,22,-0.320121,2.97692
55,22,-0.33398,3.00773
56,22,-0.349178,3.03829
57,22,-0.365775,3.06858
58,22,-0.383827,3.09859
59,22,-0.403383,3.12829
60,22,-0.42449,3.15766
61,22,-0.447185,3.18668
62,22,-0.4715,3.21533
63,22,-0.497458,3.24358
1,23,0.0117951,1.45499
2,23,-0.00966459,1.4779
3,23,-0.0301954,1.50115
4,23,-0.0497947,1.52476
5,23,-0.0684638,1.54871
6,23,-0.0862076,1.573
7,23,-0.103035,1.59765
8,23,-0.118957,1.62263
9,23,-0.133988,1.64796
10,23,-0.148147,1.67362
11,23,-0.161452,1.69962
12,23,-0.173925,1.72595
13,23,-0.18559,1.75261
14,23,-0.196471,1.77959
15,23,-0.206595,1.8069
16,23,-0.215989,1.83451
17,23,-0.224682,1.86244
18,23,-0.232702,1.89067
19,23,-0.240081,1.9192
20,23,-0.246849,1.94802
21,23,-0.253038,1.97712
22,23,-0.25868,2.00651
23,23,-0.26381,2.03616
24,23,-0.26846,2.06607
25,23,-0.272666,2.09623
26,23,-0.276465,2.12664
27,23,-0.279893,2.15728
28,23,-0.28299,2.18814
29,23,-0.285793,2.21921
30,23,-0.288345,2.25049
31,23,-0.290687,2.28195
32,23,-0.292864,2.31359
33,23,-0.294921,2.34539
34,23,-0.296905,2.37735
35,23,-0.298864,2.40944
36,23,-0.300851,2.44166
37,23,-0.302916,2.47398
38,23,-0.305115,2.5064
39,23,-0.307505,2.5389
40,23,-0.310143,2.57146
41,23,-0.31309,2.60406
42,23,-0.316409,2.63669
43,23,-0.320163,2.66934
44,23,-0.324419,2.70197
45,23,-0.329245,2.73458
46,23,-0.334708,2.76715
47,23,-0.340879,2.79966
48,23,-0.34783,2.83209
49,23,-0.355632,2.86441
50,23,-0.364357,2.89661
51,23,-0.374076,2.92868
52,23,-0.38486,2.96058
53,23,-0.396781,2.99229
54,23,-0.409905,3.0238
55,23,-0.424298,3.05509
56,23,-0.440023,3.08613
57,23,-0.457138,3.1169
58,23,-0.475699,3.14738
59,23,-0.495755,3.17755
60,23,-0.517349,3.20739
61,23,-0.540519,3.23686
62,23,-0.565296,3.26596
63,23,-0.591702,3.29465
1,24,-0.0449398,1.4779
2,24,-0.066787,1.50117
3,24,-0.0877398,1.52479
4,24,-0.107795,1.54877
5,24,-0.126951,1.5731
6,24,-0.145214,1.59778
7,24,-0.162587,1.62281
8,24,-0.179083,1.64819
9,24,-0.194712,1.67391
10,24,-0.209489,1.69998
11,24,-0.223432,1.72639
12,24,-0.23656,1.75313
13,24,-0.248894,1.78021
14,24,-0.260455,1.80762
15,24,-0.271269,1.83535
16,24,-0.281361,1.8634
17,24,-0.290755,1.89177
18,24,-0.299481,1.92044
19,24,-0.307567,1.94942
20,24,-0.315041,1.9787
21,24,-0.321935,2.00826
22,24,-0.328278,2.0381
23,24,-0.334104,2.06822
24,24,-0.339446,2.0986
25,24,-0.344337,2.12924
26,24,-0.348813,2.16013
27,24,-0.352911,2.19125
28,24,-0.356668,2.2226
29,24,-0.360124,2.25416
30,24,-0.363318,2.28593
31,24,-0.366293,2.31789
32,24,-0.369093,2.35002
33,24,-0.371762,2.38233
34,24,-0.374349,2.41479
35,24,-0.376902,2.44739
36,24,-0.379472,2.48011
37,24,-0.382111,2.51294
38,24,-0.384876,2.54587
39,24,-0.387822,2.57888
40,24,-0.391009,2.61195
41,24,-0.394497,2.64507
42,24,-0.39835,2.67821
43,24,-0.402632,2.71137
44,24,-0.40741,2.74452
45,24,-0.412752,2.77765
46,24,-0.418728,2.81073
47,24,-0.425407,2.84375
48,24,-0.432863,2.87669
49,24,-0.441166,2.90952
50,24,-0.450389,2.94223
51,24,-0.460604,2.9748
52,24,-0.471882,3.0072
53,24,-0.484294,3.03941
54,24,-0.497906,3.07142
55,24,-0.512784,3.1032
56,24,-0.528991,3.13473
57,24,-0.546586,3.16599
58,24,-0.565621,3.19695
59,24,-0.586147,3.22759
60,24,-0.608206,3.25789
61,24,-0.631835,3.28783
62,24,-0.657066,3.31739
63,24,-0.68392,3.34654
1,25,-0.101846,1.50118
2,25,-0.124083,1.52481
3,25,-0.145456,1.5488
4,25,-0.165962,1.57316
5,25,-0.185598,1.59787
6,25,-0.204367,1.62294
7,25,-0.222274,1.64836
8,25,-0.239327,1.67414
9,25,-0.255534,1.70027
10,25,-0.27091,1.72675
11,25,-0.285469,1.75357
12,25,-0.299228,1.78074
13,25,-0.312205,1.80824
14,25,-0.324422,1.83608
15,25,-0.335898,1.86425
16,25,-0.346659,1.89275
17,25,-0.356728,1.92156
18,25,-0.36613,1.95069
19,25,-0.374892,1.98012
20,25,-0.383042,2.00986
21,25,-0.390609,2.03989
22,25,-0.397623,2.0702
23,25,-0.404113,2.10079
24,25,-0.410114,2.13165
25,25,-0.415656,2.16277
26,25,-0.420776,2.19414
27,25,-0.425508,2.22576
28,25,-0.429891,2.2576
29,25,-0.433961,2.28966
30,25,-0.43776,2.32192
31,25,-0.441329,2.35439
32,25,-0.444711,2.38703
33,25,-0.447952,2.41985
34,25,-0.451098,2.45282
35,25,-0.4542,2.48593
36,25,-0.457307,2.51917
37,25,-0.460473,2.55252
38,25,-0.463754,2.58596
39,25,-0.467206,2.61949
40,25,-0.470889,2.65308
41,25,-0.474865,2.68672
42,25,-0.479197,2.72039
43,25,-0.48395,2.75407
44,25,-0.489192,2.78774
45,25,-0.494992,2.82139
46,25,-0.50142,2.85499
47,25,-0.508548,2.88853
48,25,-0.516448,2.92199
49,25,-0.525192,2.95534
50,25,-0.534855,2.98856
51,25,-0.545508,3.02164
52,25,-0.557223,3.05455
53,25,-0.570071,3.08728
54,25,-0.58412,3.11979
55,25,-0.599436,3.15207
56,25,-0.616081,3.1841
57,25,-0.634114,3.21584
58,25,-0.65359,3.24729
59,25,-0.674558,3.27842
60,25,-0.69706,3.3092
61,25,-0.721133,3.33961
62,25,-0.746809,3.36963
63,25,-0.774111,3.39924
1,26,-0.15888,1.52482
2,26,-0.181509,1.54882
3,26,-0.203302,1.57319
4,26,-0.224255,1.59793
5,26,-0.244365,1.62303
6,26,-0.263632,1.64849
7,26,-0.28206,1.67432
8,26,-0.299655,1.7005
9,26,-0.316425,1.72705
10,26,-0.332381,1.75394
11,26,-0.347536,1.78119
12,26,-0.361904,1.80878
13,26,-0.375503,1.83672
14,26,-0.388349,1.865
15,26,-0.400464,1.89361
16,26,-0.411868,1.92255
17,26,-0.422583,1.95182
18,26,-0.432634,1.98141
19,26,-0.442045,2.0113
20,26,-0.450842,2.04151
21,26,-0.459053,2.07201
22,26,-0.466706,2.1028
23,26,-0.473831,2.13387
24,26,-0.480458,2.16522
25,26,-0.48662,2.19683
26,26,-0.49235,2.2287
27,26,-0.497683,2.26081
28,26,-0.502655,2.29315
29,26,-0.507304,2.32571
30,26,-0.51167,2.35849
31,26,-0.515793,2.39146
32,26,-0.519718,2.42462
33,26,-0.523488,2.45795
34,26,-0.527152,2.49144
35,26,-0.530758,2.52507
36,26,-0.534356,2.55884
37,26,-0.538001,2.59271
38,26,-0.541749,2.62669
39,26,-0.545656,2.66074
40,26,-0.549782,2.69486
41,26,-0.554191,2.72903
42,26,-0.558946,2.76323
43,26,-0.564113,2.79744
44,26,-0.569761,2.83164
45,26,-0.57596,2.86582
46,26,-0.582781,2.89995
47,26,-0.590296,2.93402
48,26,-0.598579,2.968
49,26,-0.607705,3.00188
50,26,-0.617746,3.03563
51,26,-0.628778,3.06923
52,26,-0.640874,3.10266
53,26,-0.654104,3.1359
54,26,-0.668538,3.16892
55,26,-0.684243,3.20171
56,26,-0.701282,3.23424
57,26,-0.719715,3.26649
58,26,-0.739598,3.29843
59,26,-0.760979,3.33005
60,26,-0.783902,3.36131
61,26,-0.808405,3.3922
62,26,-0.834519,3.4227
63,26,-0.862267,3.45277
1,27,-0.216003,1.54883
2,27,-0.239027,1.57321
3,27,-0.26124,1.59797
4,27,-0.282637,1.62309
5,27,-0.303214,1.64859
6,27,-0.322972,1.67445
7,27,-0.34191,1.70069
8,27,-0.360036,1.72728
9,27,-0.377354,1.75424
10,27,-0.393874,1.78156
11,27,-0.409606,1.80924
12,27,-0.424565,1.83727
13,27,-0.438763,1.86564
14,27,-0.452218,1.89437
15,27,-0.464948,1.92343
16,27,-0.476971,1.95283
17,27,-0.488308,1.98256
18,27,-0.498982,2.01261
19,27,-0.509015,2.04298
20,27,-0.518432,2.07366
21,27,-0.527259,2.10464
22,27,-0.535523,2.13591
23,27,-0.543252,2.16748
24,27,-0.550476,2.19932
25,27,-0.557225,2.23143
26,27,-0.563533,2.26379
27,27,-0.569433,2.29641
28,27,-0.57496,2.32926
29,27,-0.580152,2.36234
30,27,-0.585048,2.39563
31,27,-0.589688,2.42912
32,27,-0.594115,2.4628
33,27,-0.598374,2.49666
34,27,-0.602512,2.53068
35,27,-0.606577,2.56484
36,27,-0.61062,2.59913
37,27,-0.614696,2.63354
38,27,-0.618861,2.66805
39,27,-0.623171,2.70264
40,27,-0.627688,2.7373
41,27,-0.632475,2.77201
42,27,-0.637596,2.80674
43,27,-0.64312,2.84149
44,27,-0.649114,2.87623
45,27,-0.655651,2.91095
46,27,-0.662803,2.94562
47,27,-0.670644,2.98022
48,27,-0.679249,3.01474
49,27,-0.688694,3.04915
50,27,-0.699055,3.08343
51,27,-0.710407,3.11756
52,27,-0.722824,3.15152
53,27,-0.736381,3.18528
54,27,-0.751147,3.21882
55,27,-0.767193,3.25213
56,27,-0.784581,3.28517
57,27,-0.803375,3.31793
58,27,-0.823629,3.35037
59,27,-0.845395,3.38249
60,27,-0.868717,3.41424
61,27,-0.893635,3.44562
62,27,-0.920179,3.4766
63,27,-0.948374,3.50714
1,28,-0.273177,1.57322
2,28,-0.296599,1.59799
3,28,-0.319233,1.62313
4,28,-0.341072,1.64865
5,28,-0.362113,1.67455
6,28,-0.382354,1.70082
7,28,-0.401795,1.72747
8,28,-0.420439,1.75448
9,28,-0.438293,1.78187
10,28,-0.455362,1.80962
11,28,-0.471656,1.83773
12,28,-0.487187,1.8662
13,28,-0.501967,1.89502
14,28,-0.51601,1.9242
15,28,-0.529333,1.95372
16,28,-0.541954,1.98358
17,28,-0.55389,2.01378
18,28,-0.565162,2.0443
19,28,-0.575792,2.07515
20,28,-0.585804,2.10631
21,28,-0.59522,2.13778
22,28,-0.604067,2.16955
23,28,-0.612372,2.20161
24,28,-0.620163,2.23395
25,28,-0.627469,2.26657
26,28,-0.634323,2.29944
27,28,-0.640757,2.33257
28,28,-0.646806,2.36594
29,28,-0.652506,2.39954
30,28,-0.657895,2.43336
31,28,-0.663014,2.46738
32,28,-0.667904,2.50159
33,28,-0.672611,2.53598
34,28,-0.677179,2.57053
35,28,-0.68166,2.60523
36,28,-0.686102,2.64006
37,28,-0.690561,2.67501
38,28,-0.695092,2.71007
39,28,-0.699754,2.7452
40,28,-0.704607,2.78041
41,28,-0.709717,2.81566
42,28,-0.715147,2.85094
43,28,-0.720968,2.88624
44,28,-0.727249,2.92153
45,28,-0.734063,2.95679
46,28,-0.741484,2.99201
47,28,-0.749588,3.02716
48,28,-0.758452,3.06222
49,28,-0.768153,3.09717
50,28,-0.77877,3.13199
51,28,-0.79038,3.16665
52,28,-0.803061,3.20115
53,28,-0.816887,3.23544
54,28,-0.831932,3.26951
55,28,-0.848268,3.30334
56,28,-0.86596,3.3369
57,28,-0.885073,3.37018
58,28,-0.905663,3.40313
59,28,-0.927785,3.43575
60,28,-0.951484,3.46801
61,28,-0.976801,3.49988
62,28,-1.00377,3.53134
63,28,-1.03241,3.56237
1,29,-0.330368,1.59799
2,29,-0.354191,1.62315
3,29,-0.377247,1.64869
4,29,-0.399528,1.67462
5,29,-0.421029,1.70092
6,29,-0.441747,1.72761
7,29,-0.461683,1.75467
8,29,-0.480838,1.78211
9,29,-0.499215,1.80993
10,29,-0.516821,1.83811
11,29,-0.533663,1.86667
12,29,-0.54975,1.89559
13,29,-0.565094,1.92487
14,29,-0.579707,1.9545
15,29,-0.593604,1.98449
16,29,-0.606801,2.01482
17,29,-0.619314,2.04549
18,29,-0.631163,2.0765
19,29,-0.642367,2.10783
20,29,-0.652948,2.13948
21,29,-0.662928,2.17145
22,29,-0.672332,2.20372
23,29,-0.681186,2.23628
24,29,-0.689515,2.26913
25,29,-0.69735,2.30226
26,29,-0.70472,2.33565
27,29,-0.711657,2.36931
28,29,-0.718194,2.4032
29,29,-0.724368,2.43733
30,29,-0.730215,2.47168
31,29,-0.735775,2.50623
32,29,-0.741089,2.54098
33,29,-0.746202,2.57591
34,29,-0.75116,2.61101
35,29,-0.756011,2.64626
36,29,-0.760806,2.68164
37,29,-0.765599,2.71714
38,29,-0.770446,2.75274
39,29,-0.775407,2.78843
40,29,-0.780543,2.82419
41,29,-0.785918,2.86
42,29,-0.7916,2.89584
43,29,-0.797658,2.93169
44,29,-0.804164,2.96754
45,29,-0.811192,3.00335
46,29,-0.818818,3.03912
47,29,-0.82712,3.07483
48,29,-0.836178,3.11044
49,29,-0.846071,3.14594
50,29,-0.85688,3.18131
51,29,-0.868686,3.21652
52,29,-0.881568,3.25156
53,29,-0.895605,3.28639
54,29,-0.910873,3.321
55,29,-0.927446,3.35536
56,29,-0.945395,3.38945
57,29,-0.964784,3.42325
58,29,-0.985674,3.45673
59,29,-1.00812,3.48986
60,29,-1.03217,3.52262
61,29,-1.05787,3.555
62,29,-1.08525,3.58695
63,29,-1.11434,3.61847
1,30,-0.387543,1.62316
2,30,-0.411772,1.64871
3,30,-0.435251,1.67466
4,30,-0.457973,1.70099
5,30,-0.479932,1.72771
6,30,-0.501124,1.75481
7,30,-0.521548,1.7823
8,30,-0.541204,1.81018
9,30,-0.560096,1.83843
10,30,-0.578227,1.86706
11,30,-0.595603,1.89606
12,30,-0.612233,1.92544
13,30,-0.628125,1.95518
14,30,-0.643292,1.98528
15,30,-0.657746,2.01574
16,30,-0.6715,2.04655
17,30,-0.68457,2.0777
18,30,-0.696974,2.1092
19,30,-0.70873,2.14102
20,30,-0.719858,2.17317
21,30,-0.730379,2.20564
22,30,-0.740315,2.23842
23,30,-0.749691,2.2715
24,30,-0.758533,2.30487
25,30,-0.766867,2.33852
26,30,-0.774724,2.37244
27,30,-0.782133,2.40662
28,30,-0.789127,2.44105
29,30,-0.79574,2.47571
30,30,-0.80201,2.5106
31,30,-0.807975,2.5457
32,30,-0.813675,2.581
33,30,-0.819155,2.61648
34,30,-0.824459,2.65213
35,30,-0.829636,2.68793
36,30,-0.834737,2.72387
37,30,-0.839816,2.75993
38,30,-0.844929,2.79609
39,30,-0.850136,2.83235
40,30,-0.8555,2.86867
41,30,-0.861084,2.90504
42,30,-0.866958,2.94144
43,30,-0.873192,2.97786
44,30,-0.879859,3.01427
45,30,-0.887037,3.05065
46,30,-0.894803,3.08698
47,30,-0.903237,3.12325
48,30,-0.912421,3.15942
49,30,-0.922438,3.19548
50,30,-0.933373,3.23141
51,30,-0.945308,3.26717
52,30,-0.958328,3.30276
53,30,-0.972514,3.33814
54,30,-0.987946,3.3733
55,30,-1.0047,3.4082
56,30,-1.02286,3.44283
57,30,-1.04248,3.47716
58,30,-1.06363,3.51116
59,30,-1.08637,3.54482
60,30,-1.11075,3.5781
61,30,-1.13681,3.61098
62,30,-1.1646,3.64344
63,30,-1.19413,3.67545
1,31,-0.444671,1.64872
2,31,-0.46931,1.67468
3,31,-0.493215,1.70103
4,31,-0.516378,1.72777
5,31,-0.538793,1.75492
6,31,-0.560455,1.78245
7,31,-0.581362,1.81037
8,31,-0.601514,1.83868
9,31,-0.620911,1.86738
10,31,-0.639557,1.89646
11,31,-0.657457,1.92592
12,31,-0.674617,1.95576
13,31,-0.691044,1.98597
14,31,-0.706749,2.01654
15,31,-0.721742,2.04748
16,31,-0.736037,2.07878
17,31,-0.749647,2.11042
18,31,-0.762587,2.14241
19,31,-0.774874,2.17474
20,31,-0.786527,2.2074
21,31,-0.797566,2.24038
22,31,-0.808011,2.27367
23,31,-0.817885,2.30727
24,31,-0.827213,2.34116
25,31,-0.836021,2.37534
26,31,-0.844336,2.4098
27,31,-0.852187,2.44452
28,31,-0.859607,2.47949
29,31,-0.866628,2.5147
30,31,-0.873287,2.55014
31,31,-0.87962,2.58579
32,31,-0.885669,2.62164
33,31,-0.891475,2.65768
34,31,-0.897084,2.69389
35,31,-0.902543,2.73026
36,31,-0.907905,2.76676
37,31,-0.913221,2.80339
38,31,-0.918549,2.84013
39,31,-0.923949,2.87695
40,31,-0.929484,2.91384
41,31,-0.935219,2.95079
42,31,-0.941224,2.98776
43,31,-0.947572,3.02475
44,31,-0.954337,3.06174
45,31,-0.961597,3.09869
46,31,-0.969434,3.1356
47,31,-0.977931,3.17243
48,31,-0.987172,3.20917
49,31,-0.997243,3.2458
50,31,-1.00823,3.28229
51,31,-1.02023,3.31862
52,31,-1.03332,3.35477
53,31,-1.04759,3.39071
54,31,-1.06312,3.42642
55,31,-1.08,3.46187
56,31,-1.09831,3.49705
57,31,-1.11811,3.53191
58,31,-1.13948,3.56645
59,31,-1.16248,3.60064
60,31,-1.18716,3.63444
61,31,-1.21357,3.66784
62,31,-1.24175,3.70082
63,31,-1.27172,3.73333
1,32,-0.501724,1.67468
2,32,-0.526777,1.70105
3,32,-0.55111,1.72782
4,32,-0.574715,1.75498
5,32,-0.597586,1.78255
6,32,-0.619715,1.81052
7,32,-0.641102,1.83888
8,32,-0.661743,1.86764
9,32,-0.681639,1.89679
10,32,-0.700792,1.92633
11,32,-0.719205,1.95625
12,32,-0.736883,1.98656
13,32,-0.753833,2.01724
14,32,-0.770063,2.0483
15,32,-0.785582,2.07972
16,32,-0.800401,2.11151
17,32,-0.814533,2.14366
18,32,-0.827991,2.17615
19,32,-0.840791,2.20899
20,32,-0.85295,2.24216
21,32,-0.864486,2.27566
22,32,-0.875417,2.30947
23,32,-0.885767,2.3436
24,32,-0.895557,2.37803
25,32,-0.904812,2.41275
26,32,-0.913558,2.44775
27,32,-0.921824,2.48301
28,32,-0.92964,2.51853
29,32,-0.937038,2.5543
30,32,-0.944052,2.59029
31,32,-0.950719,2.62651
32,32,-0.957079,2.66293
33,32,-0.963172,2.69953
34,32,-0.969045,2.73631
35,32,-0.974743,2.77325
36,32,-0.980318,2.81033
37,32,-0.985824,2.84754
38,32,-0.991316,2.88485
39,32,-0.996855,2.92225
40,32,-1.0025,2.95973
41,32,-1.00833,2.99725
42,32,-1.01441,3.03481
43,32,-1.0208,3.07239
44,32,-1.0276,3.10995
45,32,-1.03487,3.14749
46,32,-1.04271,3.18497
47,32,-1.0512,3.22239
48,32,-1.06042,3.25971
49,32,-1.07047,3.29692
50,32,-1.08145,3.33398
51,32,-1.09343,3.37089
52,32,-1.10652,3.4076
53,32,-1.1208,3.44411
54,32,-1.13637,3.48038
55,32,-1.15332,3.51639
56,32,-1.17172,3.55212
57,32,-1.19165,3.58753
58,32,-1.2132,3.62262
59,32,-1.23641,3.65734
60,32,-1.26137,3.69168
61,32,-1.2881,3.72561
62,32,-1.31666,3.7591
63,32,-1.34708,3.79212
1,33,-0.558675,1.70106
2,33,-0.584146,1.72784
3,33,-0.608911,1.75502
4,33,-0.63296,1.78262
5,33,-0.656285,1.81062
6,33,-0.678881,1.83903
7,33,-0.700743,1.86784
8,33,-0.721869,1.89705
9,33,-0.742258,1.92666
10,33,-0.76191,1.95666
11,33,-0.780828,1.98706
12,33,-0.799015,2.01784
13,33,-0.816477,2.04901
14,33,-0.833219,2.08055
15,33,-0.84925,2.11247
16,33,-0.86458,2.14476
17,33,-0.879219,2.17741
18,33,-0.893179,2.21042
19,33,-0.906475,2.24377
20,33,-0.919121,2.27747
21,33,-0.931134,2.31149
22,33,-0.942533,2.34584
23,33,-0.953336,2.38051
24,33,-0.963565,2.41548
25,33,-0.973244,2.45074
26,33,-0.982396,2.48629
27,33,-0.99105,2.52211
28,33,-0.999233,2.55819
29,33,-1.00698,2.59452
30,33,-1.01431,2.63109
31,33,-1.02128,2.66787
32,33,-1.02792,2.70486
33,33,-1.03426,2.74204
34,33,-1.04035,2.7794
35,33,-1.04625,2.81692
36,33,-1.05199,2.85459
37,33,-1.05764,2.89238
38,33,-1.06324,2.93028
39,33,-1.06886,2.96827
40,33,-1.07457,3.00634
41,33,-1.08043,3.04445
42,33,-1.08651,3.08261
43,33,-1.09289,3.12077
44,33,-1.09965,3.15893
45,33,-1.10687,3.19705
46,33,-1.11463,3.23513
47,33,-1.12304,3.27314
48,33,-1.13217,3.31104
49,33,-1.14212,3.34884
50,33,-1.153,3.38649
51,33,-1.16489,3.42397
52,33,-1.1779,3.46126
53,33,-1.19212,3.49834
54,33,-1.20766,3.53519
55,33,-1.2246,3.57176
56,33,-1.24303,3.60805
57,33,-1.26304,3.64403
58,33,-1.28471,3.67966
59,33,-1.30811,3.71493
60,33,-1.3333,3.74981
61,33,-1.36034,3.78427
62,33,-1.38926,3.81829
63,33,-1.42012,3.85184
1,34,-0.615497,1.72784
2,34,-0.641392,1.75505
3,34,-0.666591,1.78266
4,34,-0.691086,1.81069
5,34,-0.714867,1.83914
6,34,-0.737928,1.86799
7,34,-0.760264,1.89725
8,34,-0.781871,1.92692
9,34,-0.802748,1.957
10,34,-0.822894,1.98748
11,34,-0.842309,2.01835
12,34,-0.860997,2.04962
13,34,-0.87896,2.08128
14,34,-0.896204,2.11332
15,34,-0.912736,2.14574
16,34,-0.928564,2.17854
17,34,-0.943696,2.2117
18,34,-0.958145,2.24523
19,34,-0.97192,2.27911
20,34,-0.985037,2.31333
21,34,-0.99751,2.34789
22,34,-1.00936,2.38279
23,34,-1.02059,2.418
24,34,-1.03124,2.45352
25,34,-1.04132,2.48934
26,34,-1.05085,2.52545
27,34,-1.05987,2.56183
28,34,-1.06839,2.59848
29,34,-1.07645,2.63538
30,34,-1.08408,2.67252
31,34,-1.09132,2.70988
32,34,-1.09819,2.74746
33,34,-1.10475,2.78523
34,34,-1.11102,2.82317
35,34,-1.11707,2.86128
36,34,-1.12294,2.89954
37,34,-1.12867,2.93793
38,34,-1.13434,2.97643
39,34,-1.13999,3.01502
40,34,-1.1457,3.05368
41,34,-1.15153,3.0924
42,34,-1.15755,3.13115
43,34,-1.16385,3.16991
44,34,-1.1705,3.20867
45,34,-1.17759,3.2474
46,34,-1.1852,3.28608
47,34,-1.19344,3.32468
48,34,-1.2024,3.36319
49,34,-1.21217,3.40157
50,34,-1.22287,3.43981
51,34,-1.23459,3.47789
52,34,-1.24744,3.51577
53,34,-1.26152,3.55343
54,34,-1.27694,3.59086
55,34,-1.2938,3.62801
56,34,-1.31219,3.66487
57,34,-1.33222,3.70141
58,34,-1.35396,3.73761
59,34,-1.37749,3.77344
60,34,-1.40288,3.80886
61,34,-1.4302,3.84387
62,34,-1.45948,3.87842
63,34,-1.49076,3.9125
1,35,-0.672166,1.75505
2,35,-0.69849,1.78268
3,35,-0.724128,1.81073
4,35,-0.74907,1.83921
5,35,-0.773308,1.8681
6,35,-0.796834,1.89741
7,35,-0.819643,1.92713
8,35,-0.841729,1.95727
9,35,-0.86309,1.98782
10,35,-0.883724,2.01877
11,35,-0.903631,2.05013
12,35,-0.922812,2.08189
13,35,-0.941269,2.11405
14,35,-0.959007,2.1466
15,35,-0.976029,2.17953
16,35,-0.992344,2.21284
17,35,-1.00796,2.24653
18,35,-1.02288,2.28058
19,35,-1.03712,2.315
20,35,-1.05069,2.34976
21,35,-1.06361,2.38487
22,35,-1.07589,2.42031
23,35,-1.08754,2.45607
24,35,-1.09858,2.49215
25,35,-1.10904,2.52854
26,35,-1.11894,2.56522
27,35,-1.12829,2.60217
28,35,-1.13713,2.6394
29,35,-1.14548,2.67688
30,35,-1.15337,2.71461
31,35,-1.16084,2.75256
32,35,-1.16792,2.79072
33,35,-1.17465,2.82909
34,35,-1.18107,2.86763
35,35,-1.18723,2.90634
36,35,-1.19317,2.9452
37,35,-1.19896,2.98419
38,35,-1.20463,3.0233
39,35,-1.21026,3.0625
40,35,-1.21591,3.10177
41,35,-1.22165,3.1411
42,35,-1.22755,3.18046
43,35,-1.23369,3.21983
44,35,-1.24015,3.2592
45,35,-1.24703,3.29854
46,35,-1.25442,3.33783
47,35,-1.26241,3.37704
48,35,-1.27111,3.41615
49,35,-1.28061,3.45514
50,35,-1.29104,3.49398
51,35,-1.3025,3.53266
52,35,-1.3151,3.57114
53,35,-1.32895,3.60939
54,35,-1.34417,3.6474
55,35,-1.36087,3.68514
56,35,-1.37916,3.72259
57,35,-1.39913,3.7597
58,35,-1.42087,3.79647
59,35,-1.44449,3.83286
60,35,-1.47004,3.86885
61,35,-1.4976,3.9044
62,35,-1.52722,3.9395
63,35,-1.55893,3.97411
1,36,-0.728659,1.78269
2,36,-0.755417,1.81076
3,36,-0.781498,1.83925
4,36,-0.806891,1.86817
5,36,-0.831588,1.89752
6,36,-0.855579,1.92729
7,36,-0.87886,1.95748
8,36,-0.901423,1.98809
9,36,-0.923266,2.01912
10,36,-0.944384,2.05056
11,36,-0.964778,2.08242
12,36,-0.984447,2.11468
13,36,-1.00339,2.14734
14,36,-1.02161,2.1804
15,36,-1.03912,2.21385
16,36,-1.05591,2.24769
17,36,-1.07199,2.28191
18,36,-1.08738,2.3165
19,36,-1.10208,2.35145
20,36,-1.11609,2.38676
21,36,-1.12944,2.42242
22,36,-1.14213,2.45842
23,36,-1.15418,2.49475
24,36,-1.1656,2.5314
25,36,-1.17642,2.56836
26,36,-1.18665,2.60561
27,36,-1.19632,2.64315
28,36,-1.20545,2.68096
29,36,-1.21406,2.71904
30,36,-1.22219,2.75735
31,36,-1.22987,2.7959
32,36,-1.23712,2.83467
33,36,-1.24399,2.87364
34,36,-1.25052,2.91279
35,36,-1.25675,2.95211
36,36,-1.26272,2.99158
37,36,-1.2685,3.03119
38,36,-1.27414,3.07091
39,36,-1.27969,3.11072
40,36,-1.28522,3.15061
41,36,-1.2908,3.19056
42,36,-1.29651,3.23054
43,36,-1.30242,3.27054
44,36,-1.30863,3.31053
45,36,-1.31522,3.35048
46,36,-1.3223,3.39039
47,36,-1.32995,3.43022
48,36,-1.3383,3.46995
49,36,-1.34744,3.50955
50,36,-1.3575,3.54901
51,36,-1.3686,3.58829
52,36,-1.38085,3.62737
53,36,-1.39438,3.66623
54,36,-1.40931,3.70484
55,36,-1.42576,3.74318
56,36,-1.44385,3.78121
57,36,-1.46369,3.81891
58,36,-1.48537,3.85626
59,36,-1.50901,3.89322
60,36,-1.53468,3.92977
61,36,-1.56245,3.96589
62,36,-1.59238,4.00154
63,36,-1.62452,4.0367
1,37,-0.784953,1.81076
2,37,-0.812151,1.83927
3,37,-0.838679,1.86821
4,37,-0.864527,1.89759
5,37,-0.889685,1.9274
6,37,-0.914143,1.95764
7,37,-0.937896,1.9883
8,37,-0.960935,2.0194
9,37,-0.983258,2.05092
10,37,-1.00486,2.08286
11,37,-1.02574,2.11521
12,37,-1.04589,2.14798
13,37,-1.06531,2.18116
14,37,-1.08402,2.21474
15,37,-1.10199,2.24872
16,37,-1.11926,2.28309
17,37,-1.1358,2.31784
18,37,-1.15164,2.35298
19,37,-1.16678,2.38848
20,37,-1.18122,2.42435
21,37,-1.19499,2.46057
22,37,-1.20808,2.49714
23,37,-1.22051,2.53404
24,37,-1.2323,2.57126
25,37,-1.24346,2.6088
26,37,-1.25401,2.64664
27,37,-1.26398,2.68477
28,37,-1.27337,2.72318
29,37,-1.28223,2.76185
30,37,-1.29056,2.80078
31,37,-1.29841,2.83993
32,37,-1.30581,2.87931
33,37,-1.31279,2.91889
34,37,-1.31938,2.95866
35,37,-1.32564,2.9986
36,37,-1.33161,3.03869
37,37,-1.33734,3.07892
38,37,-1.34288,3.11927
39,37,-1.34829,3.15971
40,37,-1.35365,3.20023
41,37,-1.35901,3.2408
42,37,-1.36446,3.28142
43,37,-1.37008,3.32204
44,37,-1.37595,3.36266
45,37,-1.38217,3.40325
46,37,-1.38884,3.44378
47,37,-1.39606,3.48423
48,37,-1.40396,3.52459
49,37,-1.41264,3.56482
50,37,-1.42224,3.60489
51,37,-1.43287,3.6448
52,37,-1.44467,3.6845
53,37,-1.45777,3.72397
54,37,-1.4723,3.76319
55,37,-1.48841,3.80212
56,37,-1.5062,3.84075
57,37,-1.52582,3.87905
58,37,-1.54737,3.91698
59,37,-1.57096,3.95453
60,37,-1.59669,3.99166
61,37,-1.62463,4.02834
62,37,-1.65486,4.06455
63,37,-1.68741,4.10026
1,38,-0.841027,1.83928
2,38,-0.868671,1.86824
3,38,-0.895651,1.89763
4,38,-0.921957,1.92747
5,38,-0.947579,1.95775
6,38,-0.972507,1.98846
7,38,-0.996732,2.01962
8,38,-1.02025,2.0512
9,38,-1.04305,2.08321
10,38,-1.06513,2.11566
11,38,-1.08649,2.14852
12,38,-1.10712,2.18181
13,38,-1.12702,2.21551
14,38,-1.1462,2.24962
15,38,-1.16465,2.28413
16,38,-1.18237,2.31904
17,38,-1.19937,2.35434
18,38,-1.21566,2.39003
19,38,-1.23123,2.4261
20,38,-1.24609,2.46253
21,38,-1.26026,2.49932
22,38,-1.27374,2.53646
23,38,-1.28654,2.57394
24,38,-1.29868,2.61176
25,38,-1.31017,2.64989
26,38,-1.32103,2.68832
27,38,-1.33127,2.72705
28,38,-1.34091,2.76607
29,38,-1.34998,2.80535
30,38,-1.3585,2.84488
31,38,-1.3665,2.88466
32,38,-1.37401,2.92465
33,38,-1.38106,2.96486
34,38,-1.38769,3.00525
35,38,-1.39394,3.04582
36,38,-1.39986,3.08655
37,38,-1.40549,3.12741
38,38,-1.41089,3.16839
39,38,-1.41611,3.20947
40,38,-1.42123,3.25062
41,38,-1.42631,3.29184
42,38,-1.43143,3.33309
43,38,-1.43667,3.37436
44,38,-1.44212,3.41561
45,38,-1.44788,3.45684
46,38,-1.45406,3.49801
47,38,-1.46076,3.5391
48,38,-1.4681,3.58009
49,38,-1.47621,3.62095
50,38,-1.48523,3.66166
51,38,-1.49528,3.70219
52,38,-1.50651,3.74252
53,38,-1.51906,3.78261
54,38,-1.53309,3.82245
55,38,-1.54873,3.862
56,38,-1.56613,3.90124
57,38,-1.58543,3.94013
58,38,-1.60676,3.97867
59,38,-1.63023,4.0168
60,38,-1.65595,4.05452
61,38,-1.68402,4.09178
62,38,-1.71451,4.12856
63,38,-1.74747,4.16483
1,39,-0.896861,1.86824
2,39,-0.924955,1.89766
3,39,-0.952393,1.92752
4,39,-0.979162,1.95783
5,39,-1.00525,1.98858
6,39,-1.03065,2.01978
7,39,-1.05535,2.05142
8,39,-1.07935,2.0835
9,39,-1.10263,2.11602
10,39,-1.12519,2.14897
11,39,-1.14702,2.18236
12,39,-1.16813,2.21617
13,39,-1.18851,2.2504
14,39,-1.20816,2.28504
15,39,-1.22707,2.3201
16,39,-1.24525,2.35556
17,39,-1.2627,2.39142
18,39,-1.27942,2.42767
19,39,-1.29542,2.4643
20,39,-1.3107,2.50131
21,39,-1.32526,2.53868
22,39,-1.33912,2.57641
23,39,-1.35229,2.61448
24,39,-1.36476,2.65288
25,39,-1.37656,2.69162
26,39,-1.38771,2.73066
27,39,-1.39821,2.77
28,39,-1.40808,2.80963
29,39,-1.41735,2.84952
30,39,-1.42603,2.88968
31,39,-1.43415,2.93008
32,39,-1.44175,2.97071
33,39,-1.44884,3.01155
34,39,-1.45548,3.05258
35,39,-1.46168,3.09379
36,39,-1.46751,3.13515
37,39,-1.47299,3.17666
38,39,-1.4782,3.21828
39,39,-1.48318,3.26001
40,39,-1.488,3.30181
41,39,-1.49273,3.34368
42,39,-1.49745,3.38558
43,39,-1.50223,3.42749
44,39,-1.50718,3.4694
45,39,-1.51239,3.51128
46,39,-1.51798,3.5531
47,39,-1.52405,3.59484
48,39,-1.53073,3.63647
49,39,-1.53815,3.67798
50,39,-1.54646,3.71933
51,39,-1.55581,3.76049
52,39,-1.56634,3.80145
53,39,-1.57822,3.84218
54,39,-1.59161,3.88264
55,39,-1.60667,3.92282
56,39,-1.62355,3.96267
57,39,-1.64242,4.00218
58,39,-1.66342,4.04132
59,39,-1.68668,4.08006
60,39,-1.71234,4.11836
61,39,-1.74048,4.15621
62,39,-1.7712,4.19357
63,39,-1.80455,4.23042
1,40,-0.952433,1.89767
2,40,-0.980986,1.92754
3,40,-1.00889,1.95787
4,40,-1.03612,1.98866
5,40,-1.06268,2.0199
6,40,-1.08856,2.05159
7,40,-1.11374,2.08372
8,40,-1.13821,2.11631
9,40,-1.16197,2.14934
10,40,-1.18501,2.18281
11,40,-1.20733,2.21672
12,40,-1.22892,2.25106
13,40,-1.24977,2.28583
14,40,-1.26988,2.32103
15,40,-1.28926,2.35664
16,40,-1.30789,2.39266
17,40,-1.32579,2.42908
18,40,-1.34294,2.4659
19,40,-1.35936,2.50311
20,40,-1.37504,2.5407
21,40,-1.39,2.57866
22,40,-1.40423,2.61698
23,40,-1.41774,2.65565
24,40,-1.43054,2.69466
25,40,-1.44265,2.734
26,40,-1.45406,2.77366
27,40,-1.46481,2.81362
28,40,-1.4749,2.85387
29,40,-1.48434,2.8944
30,40,-1.49317,2.93519
31,40,-1.50139,2.97622
32,40,-1.50905,3.01749
33,40,-1.51616,3.05897
34,40,-1.52276,3.10065
35,40,-1.52889,3.14251
36,40,-1.53458,3.18452
37,40,-1.53988,3.22668
38,40,-1.54485,3.26896
39,40,-1.54953,3.31135
40,40,-1.554,3.35381
41,40,-1.55831,3.39633
42,40,-1.56256,3.43889
43,40,-1.56681,3.48147
44,40,-1.57117,3.52404
45,40,-1.57574,3.56657
46,40,-1.58062,3.60905
47,40,-1.58595,3.65145
48,40,-1.59185,3.69374
49,40,-1.59846,3.7359
50,40,-1.60594,3.7779
51,40,-1.61445,3.81971
52,40,-1.62414,3.86132
53,40,-1.6352,3.90268
54,40,-1.6478,3.94378
55,40,-1.66213,3.98459
56,40,-1.67836,4.02507
57,40,-1.69667,4.06521
58,40,-1.71723,4.10496
59,40,-1.74019,4.14431
60,40,-1.76568,4.18322
61,40,-1.79383,4.22166
62,40,-1.82474,4.25961
63,40,-1.85846,4.29704
1,41,-1.00772,1.92755
2,41,-1.03674,1.95789
3,41,-1.06511,1.9887
4,41,-1.09282,2.01997
5,41,-1.11986,2.0517
6,41,-1.14621,2.08389
7,41,-1.17187,2.11654
8,41,-1.19683,2.14964
9,41,-1.22107,2.18319
10,41,-1.24459,2.21719
11,41,-1.26739,2.25163
12,41,-1.28945,2.28651
13,41,-1.31078,2.32183
14,41,-1.33136,2.35758
15,41,-1.3512,2.39375
16,41,-1.37028,2.43033
17,41,-1.38862,2.46733
18,41,-1.40621,2.50473
19,41,-1.42304,2.54253
20,41,-1.43913,2.58071
21,41,-1.45446,2.61926
22,41,-1.46906,2.65819
23,41,-1.48291,2.69747
24,41,-1.49603,2.7371
25,41,-1.50843,2.77706
26,41,-1.52011,2.81734
27,41,-1.53109,2.85793
28,41,-1.54138,2.89881
29,41,-1.55099,2.93998
30,41,-1.55994,2.98141
31,41,-1.56825,3.02309
32,41,-1.57594,3.06501
33,41,-1.58304,3.10714
34,41,-1.58959,3.14948
35,41,-1.5956,3.19199
36,41,-1.60113,3.23467
37,41,-1.6062,3.2775
38,41,-1.61088,3.32044
39,41,-1.61522,3.36349
40,41,-1.61927,3.40663
41,41,-1.6231,3.44982
42,41,-1.6268,3.49305
43,41,-1.63044,3.53629
44,41,-1.63412,3.57953
45,41,-1.63794,3.62274
46,41,-1.64203,3.66588
47,41,-1.6465,3.70895
48,41,-1.65149,3.75191
49,41,-1.65716,3.79473
50,41,-1.66366,3.83739
51,41,-1.67117,3.87987
52,41,-1.67987,3.92213
53,41,-1.68995,3.96414
54,41,-1.70161,4.00589
55,41,-1.71504,4.04734
56,41,-1.73047,4.08846
57,41,-1.74807,4.12923
58,41,-1.76805,4.16961
59,41,-1.79057,4.20957
60,41,-1.81581,4.2491
61,41,-1.84389,4.28815
62,41,-1.87494,4.32669
63,41,-1.90902,4.36471
1,42,-1.06272,1.9579
2,42,-1.0922,1.98873
3,42,-1.12105,2.02002
4,42,-1.14924,2.05178
5,42,-1.17675,2.08401
6,42,-1.20359,2.11671
7,42,-1.22974,2.14987
8,42,-1.25518,2.18349
9,42,-1.27991,2.21757
10,42,-1.30392,2.2521
11,42,-1.32719,2.28709
12,42,-1.34974,2.32252
13,42,-1.37154,2.35839
14,42,-1.39259,2.3947
15,42,-1.41288,2.43144
16,42,-1.43242,2.46861
17,42,-1.4512,2.50619
18,42,-1.46922,2.54418
19,42,-1.48646,2.58257
20,42,-1.50295,2.62135
21,42,-1.51867,2.66051
22,42,-1.53362,2.70005
23,42,-1.54781,2.73995
24,42,-1.56125,2.7802
25,42,-1.57393,2.82079
26,42,-1.58587,2.8617
27,42,-1.59707,2.90293
28,42,-1.60755,2.94446
29,42,-1.61731,2.98628
30,42,-1.62637,3.02836
31,42,-1.63475,3.0707
32,42,-1.64246,3.11328
33,42,-1.64953,3.15607
34,42,-1.65599,3.19907
35,42,-1.66186,3.24226
36,42,-1.66718,3.28561
37,42,-1.672,3.32911
38,42,-1.67634,3.37273
39,42,-1.68028,3.41646
40,42,-1.68386,3.46027
41,42,-1.68715,3.50415
42,42,-1.69022,3.54806
43,42,-1.69317,3.59198
44,42,-1.69608,3.6359
45,42,-1.69906,3.67979
46,42,-1.70223,3.72361
47,42,-1.70572,3.76736
48,42,-1.70967,3.81099
49,42,-1.71425,3.85449
50,42,-1.71962,3.89782
51,42,-1.72597,3.94096
52,42,-1.7335,3.98389
53,42,-1.74242,4.02657
54,42,-1.75295,4.06897
55,42,-1.76531,4.11108
56,42,-1.77975,4.15284
57,42,-1.79647,4.19425
58,42,-1.81571,4.23527
59,42,-1.83767,4.27586
60,42,-1.86253,4.31601
61,42,-1.89046,4.35567
62,42,-1.92158,4.39483
63,42,-1.95599,4.43344
1,43,-1.11739,1.98874
2,43,-1.14736,2.02005
3,43,-1.17668,2.05183
4,43,-1.20535,2.08409
5,43,-1.23336,2.11683
6,43,-1.26068,2.15004
7,43,-1.28732,2.18372
8,43,-1.31325,2.21788
9,43,-1.33847,2.25249
10,43,-1.36297,2.28757
11,43,-1.38673,2.32311
12,43,-1.40975,2.3591
13,43,-1.43203,2.39553
14,43,-1.45355,2.43241
15,43,-1.47431,2.46973
16,43,-1.4943,2.50748
17,43,-1.51352,2.54565
18,43,-1.53197,2.58424
19,43,-1.54963,2.62324
20,43,-1.56651,2.66263
21,43,-1.58261,2.70241
22,43,-1.59792,2.74257
23,43,-1.61245,2.7831
24,43,-1.6262,2.82398
25,43,-1.63917,2.86521
26,43,-1.65135,2.90677
27,43,-1.66277,2.94865
28,43,-1.67343,2.99083
29,43,-1.68333,3.0333
30,43,-1.69249,3.07605
31,43,-1.70092,3.11906
32,43,-1.70864,3.1623
33,43,-1.71566,3.20577
34,43,-1.72201,3.24945
35,43,-1.72771,3.29332
36,43,-1.7328,3.33735
37,43,-1.73732,3.38153
38,43,-1.74129,3.42584
39,43,-1.74478,3.47026
40,43,-1.74783,3.51476
41,43,-1.75052,3.55933
42,43,-1.7529,3.60393
43,43,-1.75507,3.64855
44,43,-1.75712,3.69316
45,43,-1.75915,3.73773
46,43,-1.76129,3.78225
47,43,-1.76367,3.82668
48,43,-1.76644,3.871
49,43,-1.76977,3.91519
50,43,-1.77383,3.9592
51,43,-1.77884,4.00303
52,43,-1.78501,4.04663
53,43,-1.79257,4.08998
54,43,-1.80176,4.13305
55,43,-1.81284,4.17582
56,43,-1.82608,4.21824
57,43,-1.84173,4.2603
58,43,-1.86004,4.30196
59,43,-1.88126,4.3432
60,43,-1.90561,4.38398
61,43,-1.93327,4.42427
62,43,-1.9644,4.46404
63,43,-1.9991,4.50326
1,44,-1.17173,2.02005
2,44,-1.20218,2.05186
3,44,-1.23199,2.08414
4,44,-1.26115,2.11691
5,44,-1.28965,2.15017
6,44,-1.31747,2.1839
7,44,-1.3446,2.21811
8,44,-1.37103,2.2528
9,44,-1.39674,2.28796
10,44,-1.42173,2.32359
11,44,-1.44599,2.35969
12,44,-1.4695,2.39625
13,44,-1.49225,2.43326
14,44,-1.51425,2.47072
15,44,-1.53547,2.50863
16,44,-1.55592,2.54697
17,44,-1.57559,2.58574
18,44,-1.59446,2.62494
19,44,-1.61254,2.66455
20,44,-1.62982,2.70456
21,44,-1.6463,2.74497
22,44,-1.66197,2.78576
23,44,-1.67684,2.82692
24,44,-1.69089,2.86845
25,44,-1.70414,2.91033
26,44,-1.71658,2.95254
27,44,-1.72821,2.99508
28,44,-1.73905,3.03793
29,44,-1.74908,3.08107
30,44,-1.75833,3.12449
31,44,-1.76681,3.16817
32,44,-1.77451,3.2121
33,44,-1.78147,3.25626
34,44,-1.78769,3.30062
35,44,-1.79321,3.34518
36,44,-1.79804,3.38991
37,44,-1.80222,3.43479
38,44,-1.80579,3.47979
39,44,-1.80878,3.52491
40,44,-1.81126,3.57011
41,44,-1.81327,3.61538
42,44,-1.8149,3.66068
43,44,-1.81621,3.70601
44,44,-1.8173,3.75132
45,44,-1.81829,3.7966
46,44,-1.81927,3.84181
47,44,-1.82041,3.88694
48,44,-1.82184,3.93196
49,44,-1.82375,3.97684
50,44,-1.82634,4.02155
51,44,-1.8298,4.06606
52,44,-1.83439,4.11035
53,44,-1.84036,4.15439
54,44,-1.84798,4.19814
55,44,-1.85754,4.24157
56,44,-1.86934,4.28467
57,44,-1.88368,4.32739
58,44,-1.90084,4.36971
59,44,-1.92113,4.41159
60,44,-1.94479,4.45301
61,44,-1.97205,4.49394
62,44,-2.0031,4.53434
63,44,-2.03806,4.57418
1,45,-1.22571,2.05187
2,45,-1.25665,2.08417
3,45,-1.28696,2.11696
4,45,-1.31662,2.15025
5,45,-1.34562,2.18403
6,45,-1.37394,2.21829
7,45,-1.40157,2.25304
8,45,-1.4285,2.28828
9,45,-1.45471,2.32399
10,45,-1.4802,2.36018
11,45,-1.50495,2.39685
12,45,-1.52895,2.43398
13,45,-1.55219,2.47158
14,45,-1.57467,2.50963
15,45,-1.59636,2.54813
16,45,-1.61727,2.58708
17,45,-1.63739,2.62646
18,45,-1.6567,2.66627
19,45,-1.6752,2.70651
20,45,-1.69288,2.74715
21,45,-1.70974,2.78819
22,45,-1.72578,2.82963
23,45,-1.74098,2.87144
24,45,-1.75535,2.91362
25,45,-1.76888,2.95616
26,45,-1.78157,2.99904
27,45,-1.79341,3.04225
28,45,-1.80442,3.08577
29,45,-1.81459,3.12959
30,45,-1.82393,3.17369
31,45,-1.83244,3.21807
32,45,-1.84012,3.26269
33,45,-1.847,3.30754
34,45,-1.85309,3.3526
35,45,-1.8584,3.39786
36,45,-1.86295,3.44329
37,45,-1.86677,3.48888
38,45,-1.86989,3.53459
39,45,-1.87236,3.58042
40,45,-1.87421,3.62633
41,45,-1.8755,3.67231
42,45,-1.87629,3.71833
43,45,-1.87667,3.76437
44,45,-1.87672,3.81039
45,45,-1.87654,3.85638
46,45,-1.87626,3.90231
47,45,-1.87601,3.94815
48,45,-1.87595,3.99388
49,45,-1.87627,4.03947
50,45,-1.87717,4.08488
51,45,-1.87887,4.13009
52,45,-1.88165,4.17508
53,45,-1.88577,4.21981
54,45,-1.89155,4.26425
55,45,-1.89931,4.30837
56,45,-1.90939,4.35214
57,45,-1.92214,4.39554
58,45,-1.9379,4.43852
59,45,-1.95701,4.48107
60,45,-1.97978,4.52314
61,45,-2.00648,4.56471
62,45,-2.03734,4.60574
63,45,-2.0725,4.64621
1,46,-1.27931,2.08418
2,46,-1.31076,2.11699
3,46,-1.34157,2.1503
4,46,-1.37173,2.18411
5,46,-1.40124,2.21842
6,46,-1.43007,2.25323
7,46,-1.45821,2.28852
8,46,-1.48564,2.32431
9,46,-1.51236,2.36059
10,46,-1.53836,2.39735
11,46,-1.56361,2.43459
12,46,-1.58811,2.47231
13,46,-1.61184,2.5105
14,46,-1.6348,2.54915
15,46,-1.65697,2.58826
16,46,-1.67835,2.62782
17,46,-1.69892,2.66782
18,46,-1.71867,2.70826
19,46,-1.7376,2.74913
20,46,-1.75569,2.79041
21,46,-1.77294,2.8321
22,46,-1.78935,2.87419
23,46,-1.80489,2.91666
24,46,-1.81957,2.95951
25,46,-1.83339,3.00271
26,46,-1.84633,3.04627
27,46,-1.8584,3.09016
28,46,-1.86958,3.13436
29,46,-1.87989,3.17887
30,46,-1.88931,3.22367
31,46,-1.89785,3.26874
32,46,-1.90552,3.31407
33,46,-1.91232,3.35962
34,46,-1.91825,3.4054
35,46,-1.92334,3.45137
36,46,-1.92759,3.49751
37,46,-1.93103,3.54382
38,46,-1.93368,3.59025
39,46,-1.93558,3.6368
40,46,-1.93677,3.68344
41,46,-1.93728,3.73014
42,46,-1.93719,3.77689
43,46,-1.93656,3.82365
44,46,-1.93547,3.8704
45,46,-1.93403,3.91711
46,46,-1.93235,3.96377
47,46,-1.93057,4.01033
48,46,-1.92885,4.05678
49,46,-1.92739,4.10308
50,46,-1.92639,4.14921
51,46,-1.9261,4.19513
52,46,-1.9268,4.24083
53,46,-1.92879,4.28626
54,46,-1.93242,4.3314
55,46,-1.93806,4.37622
56,46,-1.94609,4.42068
57,46,-1.95692,4.46476
58,46,-1.97096,4.50842
59,46,-1.98861,4.55163
60,46,-2.01024,4.59437
61,46,-2.03618,4.63659
62,46,-2.06671,4.67827
63,46,-2.10201,4.71938
1,47,-1.33253,2.117
2,47,-1.36448,2.15033
3,47,-1.3958,2.18416
4,47,-1.42648,2.21851
5,47,-1.4565,2.25336
6,47,-1.48584,2.28871
7,47,-1.5145,2.32456
8,47,-1.54245,2.36092
9,47,-1.56968,2.39776
10,47,-1.59619,2.43511
11,47,-1.62195,2.47293
12,47,-1.64695,2.51124
13,47,-1.67119,2.55003
14,47,-1.69464,2.58929
15,47,-1.71729,2.62902
16,47,-1.73915,2.6692
17,47,-1.76018,2.70983
18,47,-1.78038,2.75091
19,47,-1.79974,2.79242
20,47,-1.81825,2.83435
21,47,-1.8359,2.8767
22,47,-1.85268,2.91945
23,47,-1.86858,2.96259
24,47,-1.88359,3.00611
25,47,-1.89769,3.05
26,47,-1.9109,3.09424
27,47,-1.92319,3.13882
28,47,-1.93455,3.18372
29,47,-1.945,3.22893
30,47,-1.95451,3.27444
31,47,-1.96309,3.32022
32,47,-1.97074,3.36625
33,47,-1.97745,3.41253
34,47,-1.98323,3.45902
35,47,-1.98809,3.50572
36,47,-1.99204,3.55259
37,47,-1.99508,3.59962
38,47,-1.99724,3.64679
39,47,-1.99855,3.69407
40,47,-1.99903,3.74145
41,47,-1.99872,3.78888
42,47,-1.99768,3.83636
43,47,-1.99597,3.88386
44,47,-1.99366,3.93135
45,47,-1.99085,3.9788
46,47,-1.98766,4.02619
47,47,-1.9842,4.07348
48,47,-1.98066,4.12066
49,47,-1.97721,4.16769
50,47,-1.97409,4.21455
51,47,-1.97154,4.2612
52,47,-1.96987,4.30761
53,47,-1.96942,4.35376
54,47,-1.97055,4.39961
55,47,-1.97369,4.44513
56,47,-1.97929,4.4903
57,47,-1.98781,4.53507
58,47,-1.99975,4.57942
59,47,-2.01559,4.62331
60,47,-2.03577,4.66672
61,47,-2.06071,4.70961
62,47,-2.09073,4.75194
63,47,-2.12609,4.79369
1,48,-1.38533,2.15034
2,48,-1.41779,2.18419
3,48,-1.44963,2.21856
4,48,-1.48083,2.25344
5,48,-1.51137,2.28884
6,48,-1.54124,2.32475
7,48,-1.57042,2.36117
8,48,-1.5989,2.3981
9,48,-1.62666,2.43552
10,48,-1.65368,2.47345
11,48,-1.67996,2.51188
12,48,-1.70548,2.55079
13,48,-1.73022,2.59019
14,48,-1.75417,2.63007
15,48,-1.77732,2.67042
16,48,-1.79966,2.71123
17,48,-1.82116,2.75251
18,48,-1.84183,2.79423
19,48,-1.86163,2.83639
20,48,-1.88057,2.87899
21,48,-1.89863,2.922
22,48,-1.91579,2.96542
23,48,-1.93205,3.00925
24,48,-1.94739,3.05345
25,48,-1.96181,3.09803
26,48,-1.97528,3.14297
27,48,-1.98781,3.18825
28,48,-1.99937,3.23386
29,48,-2.00996,3.27978
30,48,-2.01957,3.326
31,48,-2.0282,3.3725
32,48,-2.03583,3.41926
33,48,-2.04246,3.46627
34,48,-2.0481,3.5135
35,48,-2.05273,3.56093
36,48,-2.05636,3.60854
37,48,-2.059,3.65631
38,48,-2.06066,3.70422
39,48,-2.06135,3.75225
40,48,-2.06109,3.80037
41,48,-2.05993,3.84855
42,48,-2.05789,3.89678
43,48,-2.05504,3.94502
44,48,-2.05143,3.99326
45,48,-2.04716,4.04145
46,48,-2.04232,4.08959
47,48,-2.03706,4.13763
48,48,-2.03151,4.18555
49,48,-2.02588,4.23332
50,48,-2.02039,4.28092
51,48,-2.01531,4.3283
52,48,-2.01095,4.37545
53,48,-2.00768,4.42232
54,48,-2.00593,4.46889
55,48,-2.00615,4.51513
56,48,-2.00886,4.56101
57,48,-2.01461,4.60648
58,48,-2.02399,4.65153
59,48,-2.03758,4.69612
60,48,-2.05593,4.74021
61,48,-2.07955,4.78377
62,48,-2.10885,4.82677
63,48,-2.14416,4.86918
1,49,-1.4377,2.1842
2,49,-1.47069,2.21859
3,49,-1.50306,2.2535
4,49,-1.53478,2.28893
5,49,-1.56586,2.32488
6,49,-1.59626,2.36136
7,49,-1.62597,2.39835
8,49,-1.65498,2.43586
9,49,-1.68327,2.47388
10,49,-1.71083,2.5124
11,49,-1.73763,2.55143
12,49,-1.76367,2.59096
13,49,-1.78893,2.63098
14,49,-1.8134,2.67149
15,49,-1.83705,2.71247
16,49,-1.85988,2.75393
17,49,-1.88187,2.79585
18,49,-1.903,2.83823
19,49,-1.92327,2.88106
20,49,-1.94265,2.92432
21,49,-1.96112,2.96802
22,49,-1.97869,3.01212
23,49,-1.99532,3.05663
24,49,-2.01101,3.10154
25,49,-2.02575,3.14682
26,49,-2.03951,3.19246
27,49,-2.05228,3.23846
28,49,-2.06405,3.28479
29,49,-2.0748,3.33143
30,49,-2.08453,3.37838
31,49,-2.09321,3.42561
32,49,-2.10084,3.47311
33,49,-2.10741,3.52085
34,49,-2.1129,3.56883
35,49,-2.11731,3.617
36,49,-2.12063,3.66536
37,49,-2.12287,3.71389
38,49,-2.12402,3.76255
39,49,-2.12408,3.81134
40,49,-2.12308,3.86021
41,49,-2.12103,3.90916
42,49,-2.11796,3.95814
43,49,-2.11391,4.00715
44,49,-2.10893,4.05614
45,49,-2.1031,4.1051
46,49,-2.09652,4.15399
47,49,-2.08929,4.20279
48,49,-2.08157,4.25147
49,49,-2.07355,4.29999
50,49,-2.06544,4.34833
51,49,-2.05753,4.39646
52,49,-2.05014,4.44435
53,49,-2.04367,4.49196
54,49,-2.03857,4.53927
55,49,-2.03537,4.58624
56,49,-2.03466,4.63283
57,49,-2.0371,4.67903
58,49,-2.04336,4.72478
59,49,-2.05416,4.77007
60,49,-2.07019,4.81486
61,49,-2.09209,4.85911
62,49,-2.1204,4.90279
63,49,-2.1555,4.94586
1,50,-1.48962,2.2186
2,50,-1.52314,2.25352
3,50,-1.55604,2.28898
4,50,-1.58831,2.32498
5,50,-1.61992,2.3615
6,50,-1.65086,2.39855
7,50,-1.68112,2.43612
8,50,-1.71067,2.47422
9,50,-1.7395,2.51284
10,50,-1.7676,2.55197
11,50,-1.79495,2.59161
12,50,-1.82152,2.63176
13,50,-1.84731,2.67241
14,50,-1.8723,2.71355
15,50,-1.89647,2.75519
16,50,-1.91981,2.7973
17,50,-1.94229,2.83988
18,50,-1.96391,2.88293
19,50,-1.98465,2.92643
20,50,-2.00448,2.97038
21,50,-2.02339,3.01476
22,50,-2.04137,3.05956
23,50,-2.0584,3.10477
24,50,-2.07446,3.15038
25,50,-2.08953,3.19637
26,50,-2.10359,3.24274
27,50,-2.11663,3.28945
28,50,-2.12862,3.33651
29,50,-2.13956,3.38389
30,50,-2.14942,3.43158
31,50,-2.15818,3.47956
32,50,-2.16583,3.5278
33,50,-2.17234,3.5763
34,50,-2.17771,3.62503
35,50,-2.18191,3.67396
36,50,-2.18494,3.72309
37,50,-2.18678,3.77237
38,50,-2.18742,3.82181
39,50,-2.18686,3.87136
40,50,-2.1851,3.921
41,50,-2.18215,3.97072
42,50,-2.17801,4.02048
43,50,-2.17273,4.07025
44,50,-2.16633,4.12002
45,50,-2.15887,4.16974
46,50,-2.15043,4.21941
47,50,-2.14112,4.26897
48,50,-2.13106,4.31842
49,50,-2.12043,4.36771
50,50,-2.10945,4.41681
51,50,-2.09839,4.4657
52,50,-2.0876,4.51434
53,50,-2.07748,4.5627
54,50,-2.06854,4.61075
55,50,-2.06136,4.65846
56,50,-2.0566,4.70579
57,50,-2.05504,4.75271
58,50,-2.0575,4.79919
59,50,-2.06484,4.84519
60,50,-2.07794,4.89068
61,50,-2.09761,4.93562
62,50,-2.12455,4.97999
63,50,-2.15927,5.02375
1,51,-1.54106,2.25353
2,51,-1.57513,2.28901
3,51,-1.60858,2.32503
4,51,-1.64139,2.36159
5,51,-1.67355,2.39868
6,51,-1.70505,2.43632
7,51,-1.73586,2.47448
8,51,-1.76596,2.51318
9,51,-1.79535,2.55241
10,51,-1.824,2.59216
11,51,-1.85189,2.63242
12,51,-1.87901,2.67321
13,51,-1.90535,2.7145
14,51,-1.93087,2.75629
15,51,-1.95557,2.79857
16,51,-1.97943,2.84135
17,51,-2.00243,2.8846
18,51,-2.02455,2.92833
19,51,-2.04577,2.97251
20,51,-2.06607,3.01715
21,51,-2.08544,3.06223
22,51,-2.10385,3.10774
23,51,-2.12129,3.15366
24,51,-2.13773,3.19999
25,51,-2.15316,3.24671
26,51,-2.16755,3.2938
27,51,-2.18088,3.34126
28,51,-2.19312,3.38906
29,51,-2.20426,3.43718
30,51,-2.21428,3.48562
31,51,-2.22314,3.53435
32,51,-2.23083,3.58336
33,51,-2.23732,3.63262
34,51,-2.24258,3.68211
35,51,-2.24661,3.73182
36,51,-2.24936,3.78172
37,51,-2.25082,3.83178
38,51,-2.25097,3.88199
39,51,-2.2498,3.93232
40,51,-2.24729,3.98275
41,51,-2.24343,4.03325
42,51,-2.23823,4.08379
43,51,-2.23168,4.13435
44,51,-2.22382,4.1849
45,51,-2.21467,4.23541
46,51,-2.20429,4.28585
47,51,-2.19277,4.3362
48,51,-2.18022,4.38642
49,51,-2.16678,4.43649
50,51,-2.15267,4.48636
51,51,-2.13815,4.53602
52,51,-2.12356,4.58543
53,51,-2.10933,4.63455
54,51,-2.09598,4.68336
55,51,-2.08415,4.73182
56,51,-2.07461,4.77989
57,51,-2.06825,4.82755
58,51,-2.06605,4.87476
59,51,-2.06909,4.92149
60,51,-2.07847,4.9677
61,51,-2.09524,5.01335
62,51,-2.12032,5.05842
63,51,-2.15439,5.10286
1,52,-1.59202,2.28902
2,52,-1.62664,2.32506
3,52,-1.66064,2.36164
4,52,-1.69401,2.39878
5,52,-1.72673,2.43646
6,52,-1.75879,2.47468
7,52,-1.79016,2.51345
8,52,-1.82083,2.55276
9,52,-1.85078,2.5926
10,52,-1.87999,2.63298
11,52,-1.90845,2.67388
12,52,-1.93613,2.7153
13,52,-1.96302,2.75724
14,52,-1.9891,2.79969
15,52,-2.01434,2.84265
16,52,-2.03874,2.88609
17,52,-2.06227,2.93003
18,52,-2.0849,2.97444
19,52,-2.10663,3.01933
20,52,-2.12742,3.06467
21,52,-2.14727,3.11045
22,52,-2.16613,3.15668
23,52,-2.18401,3.20332
24,52,-2.20086,3.25038
25,52,-2.21666,3.29784
26,52,-2.2314,3.34567
27,52,-2.24505,3.39387
28,52,-2.25757,3.44243
29,52,-2.26894,3.49131
30,52,-2.27914,3.54051
31,52,-2.28814,3.59001
32,52,-2.2959,3.63979
33,52,-2.3024,3.68982
34,52,-2.30759,3.7401
35,52,-2.31147,3.79059
36,52,-2.31397,3.84127
37,52,-2.31509,3.89212
38,52,-2.31479,3.94312
39,52,-2.31303,3.99425
40,52,-2.30978,4.04547
41,52,-2.30504,4.09676
42,52,-2.29876,4.1481
43,52,-2.29095,4.19945
44,52,-2.2816,4.2508
45,52,-2.27072,4.30211
46,52,-2.25835,4.35334
47,52,-2.24452,4.40449
48,52,-2.22934,4.4555
49,52,-2.21291,4.50635
50,52,-2.19543,4.55701
51,52,-2.17713,4.60745
52,52,-2.15833,4.65764
53,52,-2.13947,4.70754
54,52,-2.12109,4.75711
55,52,-2.10388,4.80633
56,52,-2.0887,4.85517
57,52,-2.07657,4.90358
58,52,-2.06867,4.95153
59,52,-2.06633,4.99899
60,52,-2.07095,5.04593
61,52,-2.08392,5.0923
62,52,-2.10647,5.13807
63,52,-2.13956,5.18322
1,53,-1.64247,2.32507
2,53,-1.67764,2.36167
3,53,-1.7122,2.39883
4,53,-1.74614,2.43655
5,53,-1.77943,2.47483
6,53,-1.81206,2.51365
7,53,-1.84401,2.55303
8,53,-1.87526,2.59296
9,53,-1.90579,2.63343
10,53,-1.93558,2.67444
11,53,-1.96461,2.71599
12,53,-1.99286,2.75806
13,53,-2.02033,2.80066
14,53,-2.04697,2.84378
15,53,-2.07278,2.88741
16,53,-2.09773,2.93154
17,53,-2.1218,2.97617
18,53,-2.14498,3.02128
19,53,-2.16723,3.06687
20,53,-2.18853,3.11293
21,53,-2.20887,3.15944
22,53,-2.22822,3.20639
23,53,-2.24655,3.25377
24,53,-2.26383,3.30157
25,53,-2.28005,3.34977
26,53,-2.29517,3.39836
27,53,-2.30916,3.44732
28,53,-2.32199,3.49664
29,53,-2.33363,3.54629
30,53,-2.34405,3.59627
31,53,-2.35322,3.64655
32,53,-2.36109,3.69711
33,53,-2.36763,3.74793
34,53,-2.3728,3.79899
35,53,-2.37657,3.85028
36,53,-2.37888,3.90176
37,53,-2.37969,3.95341
38,53,-2.37897,4.00522
39,53,-2.37666,4.05715
40,53,-2.37272,4.10917
41,53,-2.36712,4.16128
42,53,-2.35981,4.21342
43,53,-2.35075,4.26559
44,53,-2.33992,4.31774
45,53,-2.3273,4.36985
46,53,-2.31288,4.4219
47,53,-2.29669,4.47385
48,53,-2.27877,4.52566
49,53,-2.25919,4.57732
50,53,-2.23811,4.62878
51,53,-2.21572,4.68001
52,53,-2.19232,4.73099
53,53,-2.1683,4.78167
54,53,-2.14422,4.83203
55,53,-2.1208,4.88202
56,53,-2.09898,4.93162
57,53,-2.07991,4.9808
58,53,-2.065,5.02951
59,53,-2.0559,5.07771
60,53,-2.05441,5.12539
61,53,-2.06237,5.17249
62,53,-2.08148,5.21899
63,53,-2.11307,5.26484
1,54,-1.69238,2.36168
2,54,-1.72812,2.39886
3,54,-1.76326,2.43661
4,54,-1.79777,2.47492
5,54,-1.83164,2.5138
6,54,-1.86486,2.55324
7,54,-1.89739,2.59324
8,54,-1.92923,2.63379
9,54,-1.96035,2.6749
10,54,-1.99073,2.71656
11,54,-2.02035,2.75876
12,54,-2.0492,2.8015
13,54,-2.07724,2.84477
14,54,-2.10447,2.88856
15,54,-2.13086,2.93288
16,54,-2.15638,2.97771
17,54,-2.18102,3.02304
18,54,-2.20475,3.06886
19,54,-2.22755,3.11517
20,54,-2.2494,3.16195
21,54,-2.27026,3.20919
22,54,-2.29011,3.25688
23,54,-2.30892,3.30501
24,54,-2.32667,3.35356
25,54,-2.34333,3.40252
26,54,-2.35886,3.45187
27,54,-2.37323,3.50161
28,54,-2.38641,3.5517
29,54,-2.39836,3.60214
30,54,-2.40904,3.6529
31,54,-2.41842,3.70397
32,54,-2.42645,3.75533
33,54,-2.43308,3.80695
34,54,-2.43828,3.85882
35,54,-2.44198,3.91091
36,54,-2.44414,3.9632
37,54,-2.44471,4.01567
38,54,-2.44363,4.06829
39,54,-2.44083,4.12104
40,54,-2.43626,4.17389
41,54,-2.42985,4.22681
42,54,-2.42155,4.27977
43,54,-2.41129,4.33276
44,54,-2.39901,4.38573
45,54,-2.38467,4.43867
46,54,-2.36821,4.49153
47,54,-2.34963,4.5443
48,54,-2.3289,4.59693
49,54,-2.30606,4.6494
50,54,-2.2812,4.70167
51,54,-2.25445,4.75371
52,54,-2.22605,4.80549
53,54,-2.19635,4.85697
54,54,-2.16587,4.90812
55,54,-2.13534,4.9589
56,54,-2.10572,5.00929
57,54,-2.07833,5.05923
58,54,-2.05481,5.10871
59,54,-2.03717,5.15768
60,54,-2.02774,5.2061
61,54,-2.029,5.25395
62,54,-2.04336,5.30117
63,54,-2.07275,5.34775
1,55,-1.74173,2.39887
2,55,-1.77805,2.43664
3,55,-1.81377,2.47498
4,55,-1.84887,2.5139
5,55,-1.88334,2.55339
6,55,-1.91715,2.59345
7,55,-1.95028,2.63407
8,55,-1.98272,2.67527
9,55,-2.01444,2.71702
10,55,-2.04543,2.75934
11,55,-2.07566,2.8022
12,55,-2.10511,2.84561
13,55,-2.13376,2.88957
14,55,-2.16159,2.93405
15,55,-2.18858,2.97907
16,55,-2.2147,3.0246
17,55,-2.23992,3.07064
18,55,-2.26423,3.11719
19,55,-2.2876,3.16423
20,55,-2.31001,3.21174
21,55,-2.33141,3.25973
22,55,-2.3518,3.30817
23,55,-2.37113,3.35706
24,55,-2.38938,3.40637
25,55,-2.40651,3.4561
26,55,-2.42248,3.50623
27,55,-2.43728,3.55675
28,55,-2.45084,3.60763
29,55,-2.46314,3.65886
30,55,-2.47414,3.71043
31,55,-2.48378,3.7623
32,55,-2.49201,3.81447
33,55,-2.4988,3.8669
34,55,-2.50407,3.91959
35,55,-2.50778,3.9725
36,55,-2.50987,4.02561
37,55,-2.51025,4.07891
38,55,-2.50888,4.13236
39,55,-2.50566,4.18593
40,55,-2.50053,4.23961
41,55,-2.4934,4.29337
42,55,-2.48419,4.34717
43,55,-2.4728,4.40099
44,55,-2.45914,4.4548
45,55,-2.44313,4.50857
46,55,-2.42469,4.56227
47,55,-2.40372,4.61586
48,55,-2.38018,4.66932
49,55,-2.35403,4.72262
50,55,-2.32526,4.77571
51,55,-2.29394,4.82857
52,55,-2.2602,4.88116
53,55,-2.22433,4.93346
54,55,-2.18675,4.98541
55,55,-2.14813,5.03699
56,55,-2.10946,5.08817
57,55,-2.07212,5.1389
58,55,-2.038,5.18916
59,55,-2.00952,5.2389
60,55,-1.98968,5.28808
61,55,-1.98188,5.33668
62,55,-1.98956,5.38466
63,55,-2.01567,5.43197
1,56,-1.7905,2.43665
2,56,-1.82741,2.47501
3,56,-1.86372,2.51396
4,56,-1.89942,2.55349
5,56,-1.93449,2.5936
6,56,-1.96891,2.63429
7,56,-2.00266,2.67556
8,56,-2.03571,2.7174
9,56,-2.06805,2.75981
10,56,-2.09966,2.80279
11,56,-2.13051,2.84633
12,56,-2.16059,2.89042
13,56,-2.18986,2.93507
14,56,-2.21831,2.98026
15,56,-2.24592,3.02598
16,56,-2.27265,3.07223
17,56,-2.29849,3.119
18,56,-2.3234,3.16628
19,56,-2.34737,3.21405
20,56,-2.37036,3.26232
21,56,-2.39234,3.31106
22,56,-2.41329,3.36027
23,56,-2.43317,3.40992
24,56,-2.45195,3.46001
25,56,-2.46959,3.51053
26,56,-2.48606,3.56145
27,56,-2.50131,3.61276
28,56,-2.51531,3.66444
29,56,-2.52801,3.71648
30,56,-2.53937,3.76886
31,56,-2.54932,3.82155
32,56,-2.55783,3.87453
33,56,-2.56483,3.9278
34,56,-2.57025,3.98131
35,56,-2.57404,4.03506
36,56,-2.57612,4.08901
37,56,-2.57641,4.14314
38,56,-2.57483,4.19743
39,56,-2.57129,4.25185
40,56,-2.5657,4.30638
41,56,-2.55794,4.36098
42,56,-2.54792,4.41563
43,56,-2.5355,4.4703
44,56,-2.52058,4.52495
45,56,-2.50301,4.57957
46,56,-2.48266,4.63411
47,56,-2.4594,4.68855
48,56,-2.43311,4.74285
49,56,-2.40365,4.79699
50,56,-2.37093,4.85092
51,56,-2.33492,4.90461
52,56,-2.29561,4.95803
53,56,-2.25315,5.01115
54,56,-2.20782,5.06392
55,56,-2.16016,5.11632
56,56,-2.11107,5.1683
57,56,-2.06193,5.21983
58,56,-2.01478,5.27088
59,56,-1.9725,5.3214
60,56,-1.93888,5.37136
61,56,-1.91859,5.42072
62,56,-1.91669,5.46945
63,56,-1.93781,5.51751
1,57,-1.83867,2.47502
2,57,-1.87617,2.51399
3,57,-1.91309,2.55355
4,57,-1.9494,2.5937
5,57,-1.98509,2.63444
6,57,-2.02013,2.67577
7,57,-2.0545,2.71769
8,57,-2.08818,2.76019
9,57,-2.12116,2.80327
10,57,-2.1534,2.84693
11,57,-2.18489,2.89115
12,57,-2.21561,2.93594
13,57,-2.24552,2.98129
14,57,-2.27462,3.02719
15,57,-2.30286,3.07363
16,57,-2.33023,3.12061
17,57,-2.3567,3.16812
18,57,-2.38225,3.21614
19,57,-2.40684,3.26467
20,57,-2.43045,3.31369
21,57,-2.45304,3.3632
22,57,-2.47458,3.41318
23,57,-2.49505,3.46362
24,57,-2.51439,3.5145
25,57,-2.53259,3.56581
26,57,-2.54959,3.61753
27,57,-2.56535,3.66965
28,57,-2.57983,3.72215
29,57,-2.59299,3.77501
30,57,-2.60476,3.82821
31,57,-2.61509,3.88173
32,57,-2.62394,3.93555
33,57,-2.63122,3.98965
34,57,-2.63687,4.04401
35,57,-2.64082,4.0986
36,57,-2.64298,4.1534
37,57,-2.64327,4.20839
38,57,-2.64159,4.26353
39,57,-2.63784,4.31881
40,57,-2.63189,4.37419
41,57,-2.62364,4.42965
42,57,-2.61294,4.48516
43,57,-2.59964,4.54069
44,57,-2.58359,4.59621
45,57,-2.56461,4.65169
46,57,-2.54252,4.70709
47,57,-2.51712,4.76238
48,57,-2.4882,4.81754
49,57,-2.45555,4.87253
50,57,-2.41897,4.92731
51,57,-2.37826,4.98185
52,57,-2.33327,5.03611
53,57,-2.28395,5.09006
54,57,-2.23036,5.14367
55,57,-2.17279,5.19689
56,57,-2.11192,5.24969
57,57,-2.04895,5.30203
58,57,-1.98593,5.35388
59,57,-1.92607,5.4052
60,57,-1.87405,5.45595
61,57,-1.83621,5.50609
62,57,-1.82015,5.55558
63,57,-1.83346,5.6044
1,58,-1.88621,2.514
2,58,-1.92432,2.55358
3,58,-1.96185,2.59376
4,58,-1.99878,2.63454
5,58,-2.0351,2.67593
6,58,-2.07077,2.71791
7,58,-2.10578,2.76049
8,58,-2.14011,2.80366
9,58,-2.17374,2.84742
10,58,-2.20663,2.89176
11,58,-2.23878,2.93668
12,58,-2.27015,2.98218
13,58,-2.30073,3.02824
14,58,-2.33048,3.07486
15,58,-2.35939,3.12204
16,58,-2.38742,3.16975
17,58,-2.41455,3.21801
18,58,-2.44076,3.26679
19,58,-2.466,3.31608
20,58,-2.49025,3.36588
21,58,-2.51349,3.41617
22,58,-2.53566,3.46693
23,58,-2.55675,3.51816
24,58,-2.5767,3.56985
25,58,-2.59549,3.62196
26,58,-2.61307,3.6745
27,58,-2.62939,3.72744
28,58,-2.64441,3.78076
29,58,-2.65808,3.83445
30,58,-2.67033,3.88849
31,58,-2.68111,3.94286
32,58,-2.69036,3.99753
33,58,-2.698,4.05248
34,58,-2.70397,4.10769
35,58,-2.70817,4.16314
36,58,-2.71051,4.21881
37,58,-2.71091,4.27466
38,58,-2.70925,4.33067
39,58,-2.70541,4.38682
40,58,-2.69926,4.44308
41,58,-2.69066,4.49941
42,58,-2.67944,4.5558
43,58,-2.66544,4.6122
44,58,-2.64846,4.66859
45,58,-2.62827,4.72494
46,58,-2.60465,4.78121
47,58,-2.57733,4.83738
48,58,-2.54602,4.89341
49,58,-2.51041,4.94926
50,58,-2.47016,5.0049
51,58,-2.42493,5.0603
52,58,-2.37436,5.11542
53,58,-2.31813,5.17022
54,58,-2.256,5.22467
55,58,-2.18789,5.27873
56,58,-2.11403,5.33236
57,58,-2.03522,5.38553
58,58,-1.95315,5.43819
59,58,-1.87105,5.49032
60,58,-1.79432,5.54187
61,58,-1.73133,5.5928
62,58,-1.69358,5.64307
63,58,-1.69405,5.69265
1,59,-1.93308,2.55359
2,59,-1.97181,2.59379
3,59,-2.00997,2.6346
4,59,-2.04754,2.67603
5,59,-2.08449,2.71807
6,59,-2.12082,2.76071
7,59,-2.15648,2.80396
8,59,-2.19147,2.84781
9,59,-2.22576,2.89226
10,59,-2.25933,2.9373
11,59,-2.29215,2.98293
12,59,-2.3242,3.02914
13,59,-2.35546,3.07593
14,59,-2.3859,3.12328
15,59,-2.41549,3.1712
16,59,-2.44421,3.21967
17,59,-2.47202,3.26868
18,59,-2.49891,3.31823
19,59,-2.52484,3.3683
20,59,-2.54977,3.41888
21,59,-2.57368,3.46996
22,59,-2.59652,3.52153
23,59,-2.61827,3.57357
24,59,-2.63888,3.62606
25,59,-2.65831,3.679
26,59,-2.67651,3.73237
27,59,-2.69345,3.78614
28,59,-2.70906,3.8403
29,59,-2.72329,3.89484
30,59,-2.73609,3.94973
31,59,-2.7474,4.00495
32,59,-2.75713,4.06048
33,59,-2.76522,4.1163
34,59,-2.77159,4.17238
35,59,-2.77614,4.2287
36,59,-2.77878,4.28524
37,59,-2.77941,4.34198
38,59,-2.77789,4.39887
39,59,-2.77411,4.4559
40,59,-2.76791,4.51305
41,59,-2.75914,4.57027
42,59,-2.7476,4.62754
43,59,-2.73311,4.68483
44,59,-2.71542,4.74211
45,59,-2.69429,4.79935
46,59,-2.66942,4.85651
47,59,-2.64049,4.91356
48,59,-2.60712,4.97047
49,59,-2.56891,5.0272
50,59,-2.52537,5.08372
51,59,-2.47598,5.13999
52,59,-2.42017,5.19597
53,59,-2.3573,5.25164
54,59,-2.28673,5.30694
55,59,-2.20787,5.36185
56,59,-2.12027,5.41633
57,59,-2.02392,5.47034
58,59,-1.91963,5.52383
59,59,-1.80989,5.57678
60,59,-1.7001,5.62914
61,59,-1.60052,5.68087
62,59,-1.5281,5.73194
63,59,-1.50597,5.7823
1,60,-1.97928,2.5938
2,60,-2.01864,2.63464
3,60,-2.05743,2.67609
4,60,-2.09564,2.71817
5,60,-2.13325,2.76087
6,60,-2.17024,2.80418
7,60,-2.20657,2.84811
8,60,-2.24224,2.89265
9,60,-2.27721,2.9378
10,60,-2.31146,2.98355
11,60,-2.34498,3.0299
12,60,-2.37773,3.07684
13,60,-2.40969,3.12437
14,60,-2.44083,3.17247
15,60,-2.47113,3.22114
16,60,-2.50056,3.27037
17,60,-2.52909,3.32016
18,60,-2.55669,3.37049
19,60,-2.58333,3.42134
20,60,-2.60898,3.47272
21,60,-2.6336,3.52461
22,60,-2.65715,3.57698
23,60,-2.6796,3.62984
24,60,-2.7009,3.68317
25,60,-2.72102,3.73694
26,60,-2.7399,3.79114
27,60,-2.75751,3.84576
28,60,-2.77377,3.90078
29,60,-2.78864,3.95617
30,60,-2.80206,4.01193
31,60,-2.81396,4.06802
32,60,-2.82426,4.12442
33,60,-2.83289,4.18112
34,60,-2.83976,4.23808
35,60,-2.84478,4.2953
36,60,-2.84783,4.35273
37,60,-2.84881,4.41035
38,60,-2.84759,4.46814
39,60,-2.84403,4.52607
40,60,-2.83796,4.58412
41,60,-2.82921,4.64224
42,60,-2.81757,4.70041
43,60,-2.80283,4.75861
44,60,-2.78472,4.81679
45,60,-2.76294,4.87492
46,60,-2.73717,4.93299
47,60,-2.70702,4.99094
48,60,-2.67204,5.04874
49,60,-2.63171,5.10636
50,60,-2.58543,5.16377
51,60,-2.53249,5.22093
52,60,-2.47208,5.2778
53,60,-2.40324,5.33434
54,60,-2.32486,5.39051
55,60,-2.2357,5.44629
56,60,-2.13441,5.50162
57,60,-2.01972,5.55648
58,60,-1.89078,5.61082
59,60,-1.748,5.6646
60,60,-1.59494,5.71778
61,60,-1.44183,5.77033
62,60,-1.31162,5.8222
63,60,-1.24587,5.87336
1,61,-2.02476,2.63465
2,61,-2.06475,2.67613
3,61,-2.1042,2.71824
4,61,-2.14307,2.76098
5,61,-2.18135,2.80435
6,61,-2.21901,2.84834
7,61,-2.25603,2.89297
8,61,-2.29238,2.93821
9,61,-2.32805,2.98407
10,61,-2.36301,3.03054
11,61,-2.39724,3.07762
12,61,-2.43071,3.12529
13,61,-2.46339,3.17357
14,61,-2.49527,3.22243
15,61,-2.5263,3.27186
16,61,-2.55647,3.32187
17,61,-2.58574,3.37244
18,61,-2.61408,3.42356
19,61,-2.64147,3.47522
20,61,-2.66786,3.52741
21,61,-2.69322,3.58011
22,61,-2.71752,3.63331
23,61,-2.74072,3.687
24,61,-2.76277,3.74117
25,61,-2.78362,3.79579
26,61,-2.80324,3.85084
27,61,-2.82157,3.90632
28,61,-2.83855,3.96221
29,61,-2.85413,4.01847
30,61,-2.86824,4.0751
31,61,-2.88081,4.13208
32,61,-2.89177,4.18937
33,61,-2.90103,4.24696
34,61,-2.90851,4.30482
35,61,-2.9141,4.36294
36,61,-2.9177,4.42127
37,61,-2.91918,4.47981
38,61,-2.91841,4.53851
39,61,-2.91524,4.59735
40,61,-2.90949,4.65631
41,61,-2.90098,4.71534
42,61,-2.88949,4.77443
43,61,-2.87477,4.83354
44,61,-2.85654,4.89264
45,61,-2.83448,4.95169
46,61,-2.80822,5.01067
47,61,-2.77731,5.06953
48,61,-2.74125,5.12825
49,61,-2.69943,5.18678
50,61,-2.65113,5.24509
51,61,-2.5955,5.30315
52,61,-2.53147,5.36091
53,61,-2.45778,5.41834
54,61,-2.37286,5.4754
55,61,-2.27476,5.53206
56,61,-2.1611,5.58826
57,61,-2.02895,5.64398
58,61,-1.87493,5.69918
59,61,-1.69561,5.7538
60,61,-1.48905,5.80782
61,61,-1.25952,5.8612
62,61,-1.02996,5.91389
63,61,-0.869342,5.96585
1,62,-2.06949,2.67614
2,62,-2.11014,2.71827
3,62,-2.15024,2.76104
4,62,-2.18979,2.80446
5,62,-2.22875,2.84851
6,62,-2.2671,2.8932
7,62,-2.30482,2.93852
8,62,-2.34188,2.98448
9,62,-2.37827,3.03106
10,62,-2.41395,3.07826
11,62,-2.44891,3.12608
12,62,-2.48312,3.17451
13,62,-2.51655,3.22354
14,62,-2.54917,3.27317
15,62,-2.58096,3.32339
16,62,-2.6119,3.37419
17,62,-2.64194,3.42555
18,62,-2.67106,3.47748
19,62,-2.69922,3.52995
20,62,-2.72639,3.58296
21,62,-2.75254,3.63649
22,62,-2.77763,3.69053
23,62,-2.80161,3.74507
24,62,-2.82445,3.80008
25,62,-2.8461,3.85556
26,62,-2.8665,3.91149
27,62,-2.88561,3.96784
28,62,-2.90338,4.0246
29,62,-2.91973,4.08176
30,62,-2.93461,4.13928
31,62,-2.94794,4.19715
32,62,-2.95965,4.25534
33,62,-2.96965,4.31384
34,62,-2.97784,4.37262
35,62,-2.98414,4.43164
36,62,-2.98841,4.4909
37,62,-2.99054,4.55035
38,62,-2.99038,4.60998
39,62,-2.98778,4.66975
40,62,-2.98257,4.72963
41,62,-2.97453,4.7896
42,62,-2.96344,4.84962
43,62,-2.94905,4.90966
44,62,-2.93105,4.96969
45,62,-2.9091,5.02967
46,62,-2.88279,5.08958
47,62,-2.85167,5.14936
48,62,-2.81515,5.209
49,62,-2.77258,5.26846
50,62,-2.72316,5.32769
51,62,-2.66588,5.38666
52,62,-2.59954,5.44533
53,62,-2.5226,5.50367
54,62,-2.4331,5.56163
55,62,-2.32849,5.61917
56,62,-2.20539,5.67627
57,62,-2.0592,5.73286
58,62,-1.88358,5.78893
59,62,-1.66965,5.84441
60,62,-1.40536,5.89928
61,62,-1.07651,5.9535
62,62,-0.678629,6.00702
63,62,-0.280711,6.0598
1,63,-2.11345,2.71828
2,63,-2.15476,2.76107
3,63,-2.19554,2.80452
4,63,-2.23577,2.84862
5,63,-2.27542,2.89337
6,63,-2.31448,2.93876
7,63,-2.35291,2.9848
8,63,-2.3907,3.03148
9,63,-2.42782,3.07879
10,63,-2.46425,3.12674
11,63,-2.49996,3.17531
12,63,-2.53493,3.2245
13,63,-2.56912,3.27431
14,63,-2.60252,3.32472
15,63,-2.6351,3.37573
16,63,-2.66682,3.42732
17,63,-2.69766,3.4795
18,63,-2.72759,3.53224
19,63,-2.75656,3.58554
20,63,-2.78456,3.63938
21,63,-2.81153,3.69376
22,63,-2.83745,3.74865
23,63,-2.86226,3.80404
24,63,-2.88594,3.85992
25,63,-2.90842,3.91628
26,63,-2.92967,3.97308
27,63,-2.94963,4.03032
28,63,-2.96824,4.08798
29,63,-2.98544,4.14603
30,63,-3.00117,4.20446
31,63,-3.01535,4.26324
32,63,-3.0279,4.32236
33,63,-3.03873,4.38177
34,63,-3.04776,4.44147
35,63,-3.05488,4.50143
36,63,-3.05997,4.56162
37,63,-3.0629,4.62201
38,63,-3.06353,4.68257
39,63,-3.0617,4.74329
40,63,-3.05722,4.80411
41,63,-3.0499,4.86502
42,63,-3.0395,4.92599
43,63,-3.02575,4.98698
44,63,-3.00834,5.04795
45,63,-2.98692,5.10888
46,63,-2.96107,5.16972
47,63,-2.9303,5.23046
48,63,-2.89402,5.29103
49,63,-2.85154,5.35142
50,63,-2.80199,5.41159
51,63,-2.74432,5.47149
52,63,-2.67722,5.53108
53,63,-2.59902,5.59034
54,63,-2.50751,5.64921
55,63,-2.3998,5.70766
56,63,-2.27187,5.76565
57,63,-2.11802,5.82314
58,63,-1.92968,5.88009
59,63,-1.69327,5.93645
60,63,-1.38543,5.99218
61,63,-0.961764,6.04725
62,63,-0.326612,6.10161
63,63,0.758134,6.15523
