18,1,-0.15129,1.34069
19,1,0.646146,1.36092
20,1,0.962935,1.38135
21,1,1.12027,1.40199
22,1,1.21555,1.42283
23,1,1.28255,1.44385
24,1,1.3348,1.46506
25,1,1.37849,1.48645
26,1,1.41683,1.50801
27,1,1.45159,1.52974
28,1,1.48388,1.55162
29,1,1.51438,1.57366
30,1,1.54358,1.59583
31,1,1.57178,1.61814
32,1,1.59922,1.64058
33,1,1.62607,1.66313
34,1,1.65244,1.68579
35,1,1.67844,1.70855
36,1,1.70413,1.7314
37,1,1.72957,1.75432
38,1,1.75479,1.7773
39,1,1.77983,1.80035
40,1,1.80471,1.82344
41,1,1.82944,1.84655
42,1,1.85404,1.86969
43,1,1.87852,1.89284
44,1,1.90288,1.91599
45,1,1.92711,1.93911
46,1,1.95123,1.96221
47,1,1.97523,1.98526
48,1,1.99909,2.00825
49,1,2.02283,2.03117
50,1,2.04642,2.05401
51,1,2.06987,2.07674
52,1,2.09316,2.09936
53,1,2.11628,2.12185
54,1,2.13923,2.1442
55,1,2.16199,2.16638
56,1,2.18454,2.1884
57,1,2.20689,2.21022
58,1,2.22901,2.23183
59,1,2.2509,2.25322
60,1,2.27253,2.27438
61,1,2.2939,2.29528
62,1,2.315,2.31591
63,1,2.3358,2.33626
18,2,0.0447804,1.3618
19,2,0.433661,1.38235
20,2,0.725922,1.40311
21,2,0.922891,1.42407
22,2,1.05915,1.44523
23,2,1.15892,1.46659
24,2,1.23634,1.48813
25,2,1.29948,1.50986
26,2,1.35312,1.53176
27,2,1.40017,1.55383
28,2,1.4425,1.57606
29,2,1.48135,1.59844
30,2,1.51758,1.62096
31,2,1.55178,1.64363
32,2,1.5844,1.66642
33,2,1.61576,1.68932
34,2,1.64611,1.71234
35,2,1.67563,1.73546
36,2,1.70446,1.75866
37,2,1.73272,1.78194
38,2,1.7605,1.80529
39,2,1.78786,1.8287
40,2,1.81487,1.85215
41,2,1.84156,1.87563
42,2,1.86797,1.89914
43,2,1.89412,1.92265
44,2,1.92004,1.94616
45,2,1.94574,1.96965
46,2,1.97124,1.99311
47,2,1.99653,2.01652
48,2,2.02162,2.03988
49,2,2.04653,2.06316
50,2,2.07123,2.08635
51,2,2.09575,2.10945
52,2,2.12006,2.13242
53,2,2.14416,2.15527
54,2,2.16805,2.17796
55,2,2.19173,2.2005
56,2,2.21518,2.22286
57,2,2.23839,2.24502
58,2,2.26135,2.26698
59,2,2.28407,2.2887
60,2,2.30651,2.31019
61,2,2.32868,2.33142
62,2,2.35056,2.35238
63,2,2.37214,2.37305
18,3,-0.0196798,1.38324
19,3,0.318343,1.40412
20,3,0.584749,1.4252
21,3,0.786768,1.4465
22,3,0.939779,1.46799
23,3,1.0582,1.48968
24,3,1.15269,1.51157
25,3,1.23052,1.53364
26,3,1.29654,1.55588
27,3,1.354,1.5783
28,3,1.40513,1.60088
29,3,1.45148,1.62361
30,3,1.49413,1.64649
31,3,1.5339,1.66951
32,3,1.57137,1.69266
33,3,1.607,1.71593
34,3,1.64113,1.73931
35,3,1.67401,1.76279
36,3,1.70587,1.78636
37,3,1.73686,1.81
38,3,1.76712,1.83372
39,3,1.79675,1.8575
40,3,1.82583,1.88132
41,3,1.85444,1.90517
42,3,1.88262,1.92905
43,3,1.91042,1.95293
44,3,1.93788,1.97681
45,3,1.96503,2.00067
46,3,1.99188,2.02449
47,3,2.01846,2.04828
48,3,2.04477,2.072
49,3,2.07084,2.09565
50,3,2.09665,2.11921
51,3,2.12222,2.14267
52,3,2.14755,2.166
53,3,2.17263,2.18921
54,3,2.19747,2.21226
55,3,2.22206,2.23515
56,3,2.24639,2.25786
57,3,2.27047,2.28038
58,3,2.29428,2.30268
59,3,2.31782,2.32475
60,3,2.34107,2.34657
61,3,2.36404,2.36814
62,3,2.3867,2.38943
63,3,2.40906,2.41042
18,4,0.00242608,1.40503
19,4,0.275199,1.42623
20,4,0.50852,1.44765
21,4,0.700209,1.46927
22,4,0.855556,1.49111
23,4,0.981957,1.51314
24,4,1.08625,1.53537
25,4,1.17392,1.55779
26,4,1.24907,1.58038
27,4,1.31472,1.60315
28,4,1.37311,1.62609
29,4,1.42583,1.64918
30,4,1.47411,1.67242
31,4,1.51884,1.6958
32,4,1.56072,1.71931
33,4,1.60027,1.74295
34,4,1.6379,1.7667
35,4,1.67395,1.79055
36,4,1.70866,1.81449
37,4,1.74225,1.83851
38,4,1.77488,1.8626
39,4,1.80668,1.88675
40,4,1.83776,1.91094
41,4,1.86822,1.93517
42,4,1.89813,1.95942
43,4,1.92754,1.98368
44,4,1.9565,2.00794
45,4,1.98507,2.03217
46,4,2.01325,2.05637
47,4,2.04109,2.08053
48,4,2.06861,2.10463
49,4,2.09581,2.12865
50,4,2.12272,2.15258
51,4,2.14934,2.17641
52,4,2.17567,2.20011
53,4,2.20173,2.22368
54,4,2.22751,2.2471
55,4,2.25301,2.27035
56,4,2.27823,2.29342
57,4,2.30316,2.31629
58,4,2.32782,2.33894
59,4,2.35218,2.36136
60,4,2.37624,2.38353
61,4,2.4,2.40543
62,4,2.42345,2.42705
63,4,2.44658,2.44838
18,5,0.0461075,1.42715
19,5,0.272071,1.44869
20,5,0.474487,1.47044
21,5,0.650555,1.49241
22,5,0.800843,1.51459
23,5,0.928385,1.53697
24,5,1.03701,1.55955
25,5,1.13039,1.58232
26,5,1.21164,1.60527
27,5,1.28328,1.6284
28,5,1.34729,1.65169
29,5,1.40519,1.67515
30,5,1.45818,1.69876
31,5,1.50719,1.72251
32,5,1.55293,1.74639
33,5,1.59599,1.7704
34,5,1.63681,1.79452
35,5,1.67575,1.81874
36,5,1.71311,1.84306
37,5,1.74912,1.86746
38,5,1.78397,1.89193
39,5,1.81783,1.91646
40,5,1.85083,1.94104
41,5,1.88306,1.96565
42,5,1.91462,1.99028
43,5,1.94558,2.01492
44,5,1.976,2.03956
45,5,2.00594,2.06417
46,5,2.03543,2.08876
47,5,2.0645,2.1133
48,5,2.09319,2.13777
49,5,2.12152,2.16217
50,5,2.1495,2.18648
51,5,2.17715,2.21068
52,5,2.20448,2.23476
53,5,2.2315,2.2587
54,5,2.2582,2.28249
55,5,2.2846,2.3061
56,5,2.3107,2.32953
57,5,2.33649,2.35276
58,5,2.36198,2.37577
59,5,2.38716,2.39854
60,5,2.41202,2.42106
61,5,2.43657,2.44331
62,5,2.4608,2.46528
63,5,2.4847,2.48694
17,6,-0.0222734,1.42798
18,6,0.116458,1.44963
19,6,0.293065,1.4715
20,6,0.467378,1.4936
21,6,0.627253,1.51591
22,6,0.769451,1.53844
23,6,0.8943,1.56118
24,6,1.00359,1.58411
25,6,1.09956,1.60724
26,6,1.1844,1.63055
27,6,1.26004,1.65404
28,6,1.32813,1.6777
29,6,1.39002,1.70153
30,6,1.4468,1.72551
31,6,1.49935,1.74963
32,6,1.54839,1.77389
33,6,1.59449,1.79828
34,6,1.63812,1.82278
35,6,1.67967,1.84738
36,6,1.71943,1.87208
37,6,1.75766,1.89687
38,6,1.79459,1.92172
39,6,1.83037,1.94664
40,6,1.86515,1.9716
41,6,1.89906,1.9966
42,6,1.9322,2.02162
43,6,1.96464,2.04665
44,6,1.99647,2.07167
45,6,2.02773,2.09668
46,6,2.05848,2.12165
47,6,2.08875,2.14657
48,6,2.11859,2.17144
49,6,2.14801,2.19622
50,6,2.17704,2.22091
51,6,2.20571,2.24549
52,6,2.23401,2.26995
53,6,2.26197,2.29427
54,6,2.28959,2.31843
55,6,2.31688,2.34242
56,6,2.34385,2.36622
57,6,2.37048,2.38981
58,6,2.3968,2.41318
59,6,2.42278,2.43631
60,6,2.44845,2.45919
61,6,2.47378,2.48179
62,6,2.49878,2.5041
63,6,2.52345,2.5261
17,7,-0.0319999,1.45047
18,7,0.149517,1.47246
19,7,0.316934,1.49467
20,7,0.475288,1.51712
21,7,0.622213,1.53979
22,7,0.755988,1.56267
23,7,0.876353,1.58576
24,7,0.984075,1.60906
25,7,1.08044,1.63255
26,7,1.16692,1.65623
27,7,1.24492,1.68009
28,7,1.31575,1.70412
29,7,1.38052,1.72832
30,7,1.4402,1.75268
31,7,1.49559,1.77718
32,7,1.54734,1.80183
33,7,1.59602,1.8266
34,7,1.64208,1.85148
35,7,1.68591,1.87648
36,7,1.72781,1.90157
37,7,1.76806,1.92674
38,7,1.80687,1.95199
39,7,1.84442,1.9773
40,7,1.88087,2.00265
41,7,1.91636,2.02804
42,7,1.95098,2.05346
43,7,1.98483,2.07888
44,7,2.01798,2.1043
45,7,2.05051,2.1297
46,7,2.08247,2.15506
47,7,2.1139,2.18038
48,7,2.14484,2.20563
49,7,2.17533,2.23081
50,7,2.20539,2.25589
51,7,2.23504,2.28086
52,7,2.2643,2.3057
53,7,2.29319,2.3304
54,7,2.32171,2.35494
55,7,2.34987,2.37931
56,7,2.37769,2.40348
57,7,2.40516,2.42745
58,7,2.43229,2.45119
59,7,2.45907,2.47468
60,7,2.48552,2.49791
61,7,2.51163,2.52087
62,7,2.5374,2.54353
63,7,2.56282,2.56588
17,8,0.0324009,1.47331
18,8,0.197267,1.49564
19,8,0.350457,1.51821
20,8,0.495219,1.54101
21,8,0.630915,1.56403
22,8,0.756526,1.58728
23,8,0.871638,1.61073
24,8,0.9765,1.63439
25,8,1.07181,1.65826
26,8,1.1585,1.68231
27,8,1.23757,1.70655
28,8,1.31,1.73096
29,8,1.37671,1.75554
30,8,1.43848,1.78028
31,8,1.49602,1.80517
32,8,1.54994,1.8302
33,8,1.60073,1.85536
34,8,1.64884,1.88064
35,8,1.69463,1.90603
36,8,1.73841,1.93151
37,8,1.78044,1.95708
38,8,1.82094,1.98273
39,8,1.86011,2.00843
40,8,1.89809,2.03419
41,8,1.93503,2.05998
42,8,1.97103,2.08579
43,8,2.0062,2.11162
44,8,2.04062,2.13744
45,8,2.07436,2.16323
46,8,2.10747,2.189
47,8,2.14001,2.21471
48,8,2.17202,2.24036
49,8,2.20353,2.26594
50,8,2.23458,2.29141
51,8,2.26519,2.31677
52,8,2.29539,2.34201
53,8,2.32517,2.3671
54,8,2.35457,2.39203
55,8,2.3836,2.41678
56,8,2.41225,2.44133
57,8,2.44054,2.46567
58,8,2.46847,2.48979
59,8,2.49605,2.51365
60,8,2.52327,2.53725
61,8,2.55015,2.56057
62,8,2.57667,2.58359
63,8,2.60283,2.60629
16,9,0.0117037,1.47407
17,9,0.123377,1.49651
18,9,0.257295,1.5192
19,9,0.39301,1.54212
20,9,0.524816,1.56528
21,9,0.650305,1.58866
22,9,0.768161,1.61227
23,9,0.877774,1.6361
24,9,0.979077,1.66013
25,9,1.07239,1.68437
26,9,1.15829,1.7088
27,9,1.23744,1.73342
28,9,1.31058,1.75822
29,9,1.37841,1.78319
30,9,1.44157,1.80832
31,9,1.50067,1.8336
32,9,1.55623,1.85902
33,9,1.6087,1.88458
34,9,1.65848,1.91025
35,9,1.70592,1.93604
36,9,1.75131,1.96193
37,9,1.7949,1.9879
38,9,1.8369,2.01395
39,9,1.87751,2.04006
40,9,1.91688,2.06622
41,9,1.95515,2.09242
42,9,1.99244,2.11864
43,9,2.02884,2.14487
44,9,2.06444,2.1711
45,9,2.09931,2.1973
46,9,2.13352,2.22347
47,9,2.16712,2.24959
48,9,2.20015,2.27565
49,9,2.23266,2.30162
50,9,2.26466,2.32749
51,9,2.2962,2.35326
52,9,2.3273,2.37889
53,9,2.35797,2.40437
54,9,2.38823,2.4297
55,9,2.41809,2.45484
56,9,2.44756,2.47978
57,9,2.47665,2.5045
58,9,2.50537,2.52899
59,9,2.53373,2.55323
60,9,2.56171,2.57721
61,9,2.58934,2.60089
62,9,2.6166,2.62427
63,9,2.6435,2.64733
15,10,-0.045135,1.47475
16,10,0.0740707,1.49729
17,10,0.19272,1.52008
18,10,0.316137,1.54312
19,10,0.44008,1.56641
20,10,0.561343,1.58993
21,10,0.677936,1.61368
22,10,0.78865,1.63766
23,10,0.89283,1.66186
24,10,0.990249,1.68628
25,10,1.08101,1.71089
26,10,1.16542,1.73571
27,10,1.24393,1.76072
28,10,1.31707,1.78591
29,10,1.38536,1.81127
30,10,1.44933,1.83679
31,10,1.50946,1.86247
32,10,1.56619,1.8883
33,10,1.61994,1.91426
34,10,1.67105,1.94034
35,10,1.71984,1.96653
36,10,1.76657,1.99282
37,10,1.81149,2.01921
38,10,1.85481,2.04567
39,10,1.8967,2.07219
40,10,1.93732,2.09876
41,10,1.9768,2.12537
42,10,2.01526,2.15201
43,10,2.0528,2.17865
44,10,2.0895,2.20529
45,10,2.12544,2.2319
46,10,2.16068,2.25849
47,10,2.19528,2.28502
48,10,2.22929,2.31148
49,10,2.26274,2.33786
50,10,2.29567,2.36415
51,10,2.32811,2.39032
52,10,2.36007,2.41635
53,10,2.3916,2.44224
54,10,2.42269,2.46796
55,10,2.45337,2.49349
56,10,2.48364,2.51883
57,10,2.51352,2.54394
58,10,2.54301,2.56882
59,10,2.57212,2.59344
60,10,2.60086,2.61779
61,10,2.62922,2.64185
62,10,2.65721,2.6656
63,10,2.68483,2.68902
15,11,0.00345482,1.49797
16,11,0.137613,1.52086
17,11,0.257912,1.54402
18,11,0.375073,1.56742
19,11,0.490452,1.59107
20,11,0.603158,1.61497
21,11,0.712068,1.63909
22,11,0.816294,1.66345
23,11,0.915263,1.68803
24,11,1.0087,1.71283
25,11,1.09658,1.73784
26,11,1.17906,1.76304
27,11,1.25641,1.78845
28,11,1.32901,1.81403
29,11,1.39724,1.83979
30,11,1.46152,1.86572
31,11,1.52223,1.8918
32,11,1.57974,1.91803
33,11,1.6344,1.9444
34,11,1.68652,1.97089
35,11,1.73638,1.9975
36,11,1.78422,2.02421
37,11,1.83027,2.051
38,11,1.87471,2.07788
39,11,1.91772,2.10482
40,11,1.95944,2.13181
41,11,2.00001,2.15884
42,11,2.03954,2.18589
43,11,2.07812,2.21296
44,11,2.11584,2.24001
45,11,2.15277,2.26705
46,11,2.18899,2.29405
47,11,2.22453,2.321
48,11,2.25946,2.34788
49,11,2.29382,2.37468
50,11,2.32763,2.40138
51,11,2.36092,2.42796
52,11,2.39374,2.4544
53,11,2.42608,2.4807
54,11,2.45799,2.50682
55,11,2.48946,2.53276
56,11,2.52051,2.55849
57,11,2.55115,2.584
58,11,2.5814,2.60927
59,11,2.61125,2.63428
60,11,2.64072,2.65902
61,11,2.66981,2.68345
62,11,2.69851,2.70758
63,11,2.72684,2.73136
14,12,0.00348454,1.49857
15,12,0.103573,1.52156
16,12,0.215641,1.54481
17,12,0.326872,1.56833
18,12,0.436422,1.5921
19,12,0.544126,1.61613
20,12,0.649399,1.6404
21,12,0.751514,1.66491
22,12,0.849823,1.68965
23,12,0.943857,1.71462
24,12,1.03334,1.7398
25,12,1.11818,1.7652
26,12,1.19844,1.79081
27,12,1.27428,1.81661
28,12,1.34594,1.8426
29,12,1.4137,1.86876
30,12,1.47789,1.8951
31,12,1.5388,1.92159
32,12,1.59675,1.94824
33,12,1.65201,1.97502
34,12,1.70486,2.00193
35,12,1.75553,2.02895
36,12,1.80425,2.05608
37,12,1.85122,2.0833
38,12,1.89662,2.1106
39,12,1.94059,2.13797
40,12,1.98328,2.16538
41,12,2.02482,2.19284
42,12,2.0653,2.22032
43,12,2.10483,2.24781
44,12,2.14349,2.27529
45,12,2.18135,2.30275
46,12,2.21846,2.33018
47,12,2.2549,2.35755
48,12,2.2907,2.38486
49,12,2.32591,2.41208
50,12,2.36056,2.43919
51,12,2.39469,2.46619
52,12,2.42831,2.49305
53,12,2.46145,2.51976
54,12,2.49414,2.5463
55,12,2.52638,2.57265
56,12,2.55819,2.59878
57,12,2.58958,2.6247
58,12,2.62056,2.65036
59,12,2.65114,2.67577
60,12,2.68132,2.70089
61,12,2.71111,2.72571
62,12,2.74052,2.75021
63,12,2.76954,2.77438
13,13,-0.00968201,1.49909
14,13,0.0922456,1.52217
15,13,0.19235,1.54552
16,13,0.295143,1.56914
17,13,0.398153,1.59303
18,13,0.500257,1.61718
19,13,0.60087,1.64158
20,13,0.699438,1.66623
21,13,0.795405,1.69112
22,13,0.888268,1.71626
23,13,0.977638,1.74162
24,13,1.06326,1.7672
25,13,1.14501,1.793
26,13,1.22287,1.81901
27,13,1.29695,1.84522
28,13,1.36738,1.87161
29,13,1.43437,1.89819
30,13,1.49815,1.92494
31,13,1.55897,1.95186
32,13,1.61705,1.97892
33,13,1.67264,2.00612
34,13,1.72597,2.03346
35,13,1.77723,2.06091
36,13,1.82663,2.08846
37,13,1.87434,2.11611
38,13,1.92052,2.14384
39,13,1.96531,2.17163
40,13,2.00885,2.19948
41,13,2.05123,2.22737
42,13,2.09257,2.25528
43,13,2.13296,2.2832
44,13,2.17247,2.31112
45,13,2.21118,2.33901
46,13,2.24914,2.36687
47,13,2.28641,2.39468
48,13,2.32303,2.42241
49,13,2.35905,2.45006
50,13,2.39451,2.47761
51,13,2.42942,2.50503
52,13,2.46382,2.53231
53,13,2.49773,2.55944
54,13,2.53117,2.5864
55,13,2.56415,2.61316
56,13,2.5967,2.63971
57,13,2.62881,2.66603
58,13,2.66051,2.6921
59,13,2.69179,2.7179
60,13,2.72267,2.74342
61,13,2.75315,2.76863
62,13,2.78324,2.79352
63,13,2.81294,2.81807
12,14,-0.0103905,1.49953
13,14,0.0869999,1.52269
14,14,0.183475,1.54614
15,14,0.279087,1.56986
16,14,0.375075,1.59385
17,14,0.470988,1.61812
18,14,0.566234,1.64264
19,14,0.660307,1.66743
20,14,0.75273,1.69247
21,14,0.843049,1.71776
22,14,0.930855,1.74328
23,14,1.01582,1.76904
24,14,1.0977,1.79503
25,14,1.17636,1.82124
26,14,1.25175,1.84766
27,14,1.3239,1.87427
28,14,1.3929,1.90109
29,14,1.45889,1.92809
30,14,1.52202,1.95526
31,14,1.58249,1.98259
32,14,1.64047,2.01008
33,14,1.69616,2.03771
34,14,1.74975,2.06548
35,14,1.80141,2.09336
36,14,1.85131,2.12135
37,14,1.89959,2.14943
38,14,1.94641,2.1776
39,14,1.99188,2.20583
40,14,2.03613,2.23412
41,14,2.07926,2.26245
42,14,2.12136,2.2908
43,14,2.16252,2.31916
44,14,2.20281,2.34751
45,14,2.24229,2.37585
46,14,2.28103,2.40415
47,14,2.31908,2.43239
48,14,2.35647,2.46056
49,14,2.39326,2.48864
50,14,2.42947,2.51662
51,14,2.46513,2.54448
52,14,2.50028,2.57219
53,14,2.53492,2.59975
54,14,2.56909,2.62713
55,14,2.60279,2.65431
56,14,2.63605,2.68128
57,14,2.66886,2.70801
58,14,2.70125,2.73449
59,14,2.73322,2.76071
60,14,2.76478,2.78662
61,14,2.79594,2.81223
62,14,2.82669,2.83751
63,14,2.85704,2.86245
10,15,-0.0783396,1.47697
11,15,-0.0117095,1.49991
12,15,0.091341,1.52315
13,15,0.185251,1.54667
14,15,0.276221,1.57049
15,15,0.366104,1.59458
16,15,0.45574,1.61895
17,15,0.545149,1.6436
18,15,0.634044,1.66851
19,15,0.722053,1.69369
20,15,0.808787,1.71912
21,15,0.893867,1.74481
22,15,0.976945,1.77074
23,15,1.05773,1.7969
24,15,1.13601,1.8233
25,15,1.21163,1.84992
26,15,1.28451,1.87675
27,15,1.35465,1.90379
28,15,1.42209,1.93103
29,15,1.4869,1.95845
30,15,1.5492,1.98605
31,15,1.60912,2.01381
32,15,1.66681,2.04174
33,15,1.72242,2.0698
34,15,1.77609,2.098
35,15,1.82797,2.12633
36,15,1.8782,2.15476
37,15,1.92691,2.18328
38,15,1.97423,2.21189
39,15,2.02027,2.24057
40,15,2.06512,2.2693
41,15,2.10889,2.29807
42,15,2.15166,2.32687
43,15,2.19351,2.35568
44,15,2.2345,2.38448
45,15,2.2747,2.41326
46,15,2.31415,2.442
47,15,2.35292,2.47069
48,15,2.39104,2.49931
49,15,2.42854,2.52783
50,15,2.46547,2.55625
51,15,2.50185,2.58455
52,15,2.5377,2.6127
53,15,2.57305,2.64069
54,15,2.60792,2.6685
55,15,2.64231,2.69611
56,15,2.67625,2.7235
57,15,2.70975,2.75066
58,15,2.74281,2.77756
59,15,2.77545,2.80418
60,15,2.80767,2.83051
61,15,2.83948,2.85652
62,15,2.87088,2.8822
63,15,2.90187,2.90752
9,16,-0.036982,1.47722
10,16,0.0431726,1.50022
11,16,0.11871,1.52353
12,16,0.202875,1.54713
13,16,0.287105,1.57103
14,16,0.370722,1.59522
15,16,0.454034,1.61969
16,16,0.537299,1.64445
17,16,0.620495,1.66948
18,16,0.70341,1.69479
19,16,0.785746,1.72036
20,16,0.86717,1.74619
21,16,0.947355,1.77228
22,16,1.026,1.79862
23,16,1.10283,1.8252
24,16,1.17765,1.85201
25,16,1.2503,1.87905
26,16,1.32069,1.90631
27,16,1.38877,1.93377
28,16,1.45455,1.96143
29,16,1.51808,1.98929
30,16,1.57941,2.01732
31,16,1.63864,2.04553
32,16,1.69588,2.07389
33,16,1.75124,2.1024
34,16,1.80484,2.13104
35,16,1.8568,2.15981
36,16,1.90723,2.18869
37,16,1.95625,2.21766
38,16,2.00395,2.24672
39,16,2.05043,2.27585
40,16,2.09579,2.30504
41,16,2.14011,2.33426
42,16,2.18346,2.36352
43,16,2.22592,2.39278
44,16,2.26754,2.42203
45,16,2.30839,2.45127
46,16,2.34851,2.48046
47,16,2.38794,2.5096
48,16,2.42673,2.53867
49,16,2.46492,2.56764
50,16,2.50252,2.59651
51,16,2.53958,2.62525
52,16,2.57611,2.65384
53,16,2.61213,2.68227
54,16,2.64767,2.71052
55,16,2.68273,2.73857
56,16,2.71734,2.76639
57,16,2.75149,2.79397
58,16,2.7852,2.8213
59,16,2.81849,2.84834
60,16,2.85135,2.87508
61,16,2.88379,2.9015
62,16,2.91582,2.92759
63,16,2.94744,2.95331
6,17,-0.0978621,1.43224
7,17,-0.0520803,1.45467
8,17,0.0165458,1.47742
9,17,0.0968672,1.50048
10,17,0.169969,1.52385
11,17,0.241171,1.54752
12,17,0.315016,1.5715
13,17,0.390245,1.59577
14,17,0.466203,1.62034
15,17,0.542689,1.6452
16,17,0.619608,1.67034
17,17,0.696802,1.69577
18,17,0.774037,1.72148
19,17,0.851029,1.74745
20,17,0.927473,1.77369
21,17,1.00307,1.80019
22,17,1.07753,1.82694
23,17,1.15063,1.85394
24,17,1.22214,1.88118
25,17,1.29191,1.90864
26,17,1.35984,1.93633
27,17,1.42586,1.96422
28,17,1.48995,1.99232
29,17,1.55211,2.02062
30,17,1.61238,2.04909
31,17,1.67081,2.07774
32,17,1.72748,2.10655
33,17,1.78248,2.13551
34,17,1.83589,2.1646
35,17,1.8878,2.19382
36,17,1.93832,2.22316
37,17,1.98752,2.25259
38,17,2.0355,2.2821
39,17,2.08233,2.31169
40,17,2.12811,2.34134
41,17,2.17289,2.37102
42,17,2.21675,2.40074
43,17,2.25974,2.43046
44,17,2.30193,2.46017
45,17,2.34337,2.48987
46,17,2.38409,2.51952
47,17,2.42414,2.54912
48,17,2.46357,2.57864
49,17,2.50238,2.60808
50,17,2.54063,2.6374
51,17,2.57833,2.66659
52,17,2.61551,2.69563
53,17,2.65217,2.72451
54,17,2.68835,2.75321
55,17,2.72406,2.78169
56,17,2.7593,2.80996
57,17,2.79409,2.83797
58,17,2.82843,2.86573
59,17,2.86234,2.89319
60,17,2.89582,2.92036
61,17,2.92888,2.9472
62,17,2.96152,2.97369
63,17,2.99374,2.99982
1,18,-0.00128042,1.34565
2,18,-0.0534563,1.36683
3,18,-0.0351479,1.38834
4,18,-0.00439503,1.41017
5,18,0.0347343,1.43232
6,18,0.0849838,1.45479
7,18,0.12819,1.47758
8,18,0.179668,1.50069
9,18,0.23861,1.52411
10,18,0.299342,1.54785
11,18,0.361668,1.57189
12,18,0.426455,1.59624
13,18,0.493341,1.6209
14,18,0.561844,1.64585
15,18,0.631601,1.67111
16,18,0.70233,1.69665
17,18,0.773758,1.72248
18,18,0.845599,1.74858
19,18,0.917553,1.77497
20,18,0.989318,1.80162
21,18,1.0606,1.82854
22,18,1.13114,1.85572
23,18,1.20069,1.88314
24,18,1.26905,1.9108
25,18,1.33606,1.9387
26,18,1.40159,1.96682
27,18,1.46558,1.99516
28,18,1.52795,2.0237
29,18,1.58871,2.05244
30,18,1.64785,2.08136
31,18,1.70541,2.11046
32,18,1.76143,2.13972
33,18,1.81596,2.16914
34,18,1.86908,2.19869
35,18,1.92086,2.22837
36,18,1.97135,2.25817
37,18,2.02065,2.28806
38,18,2.06882,2.31804
39,18,2.11592,2.3481
40,18,2.16202,2.37821
41,18,2.2072,2.40836
42,18,2.25149,2.43854
43,18,2.29496,2.46873
44,18,2.33766,2.49892
45,18,2.37963,2.52908
46,18,2.4209,2.5592
47,18,2.46153,2.58926
48,18,2.50154,2.61925
49,18,2.54095,2.64915
50,18,2.5798,2.67893
51,18,2.61811,2.70858
52,18,2.6559,2.73808
53,18,2.69318,2.76742
54,18,2.72998,2.79656
55,18,2.7663,2.8255
56,18,2.80216,2.85421
57,18,2.83756,2.88266
58,18,2.87251,2.91085
59,18,2.90703,2.93876
60,18,2.94111,2.96635
61,18,2.97477,2.99361
62,18,3.008,3.02052
63,18,3.04081,3.04706
1,19,0.68336,1.36684
2,19,0.414595,1.38836
3,19,0.30588,1.4102
4,19,0.265748,1.43238
5,19,0.260348,1.45488
6,19,0.275547,1.4777
7,19,0.300867,1.50085
8,19,0.336006,1.52432
9,19,0.379249,1.54811
10,19,0.427809,1.57222
11,19,0.480396,1.59665
12,19,0.536488,1.62138
13,19,0.595517,1.64642
14,19,0.656927,1.67177
15,19,0.72024,1.69742
16,19,0.785053,1.72337
17,19,0.851004,1.7496
18,19,0.917751,1.77612
19,19,0.984969,1.80292
20,19,1.05234,1.83
21,19,1.11959,1.85734
22,19,1.18643,1.88494
23,19,1.25264,1.91279
24,19,1.31801,1.94089
25,19,1.38237,1.96923
26,19,1.4456,1.99779
27,19,1.50758,2.02657
28,19,1.56827,2.05557
29,19,1.62761,2.08476
30,19,1.68559,2.11414
31,19,1.74222,2.14369
32,19,1.79752,2.17342
33,19,1.85153,2.20329
34,19,1.90429,2.23331
35,19,1.95584,2.26346
36,19,2.00624,2.29373
37,19,2.05556,2.32409
38,19,2.10383,2.35455
39,19,2.15113,2.38507
40,19,2.1975,2.41566
41,19,2.243,2.44629
42,19,2.28766,2.47694
43,19,2.33155,2.50761
44,19,2.3747,2.53827
45,19,2.41715,2.5689
46,19,2.45894,2.5995
47,19,2.50009,2.63004
48,19,2.54064,2.6605
49,19,2.58062,2.69087
50,19,2.62004,2.72112
51,19,2.65892,2.75124
52,19,2.6973,2.7812
53,19,2.73517,2.811
54,19,2.77256,2.8406
55,19,2.80947,2.86999
56,19,2.84592,2.89915
57,19,2.88191,2.92806
58,19,2.91745,2.95669
59,19,2.95256,2.98503
60,19,2.98722,3.01306
61,19,3.02146,3.04075
62,19,3.05526,3.06808
63,19,3.08864,3.09504
1,20,0.97514,1.38836
2,20,0.723263,1.41022
3,20,0.578995,1.43241
4,20,0.501837,1.45493
5,20,0.466044,1.47779
6,20,0.456673,1.50097
7,20,0.464414,1.52449
8,20,0.484931,1.54833
9,20,0.515266,1.57249
10,20,0.552949,1.59698
11,20,0.596318,1.62179
12,20,0.644288,1.64691
13,20,0.696019,1.67235
14,20,0.750814,1.6981
15,20,0.80809,1.72415
16,20,0.86735,1.7505
17,20,0.928165,1.77715
18,20,0.990146,1.80409
19,20,1.05294,1.83131
20,20,1.11622,1.85881
21,20,1.17969,1.88659
22,20,1.24307,1.91462
23,20,1.30614,1.94291
24,20,1.36869,1.97146
25,20,1.43053,2.00024
26,20,1.49154,2.02925
27,20,1.5516,2.05849
28,20,1.61062,2.08794
29,20,1.66856,2.11759
30,20,1.72538,2.14743
31,20,1.78106,2.17745
32,20,1.8356,2.20764
33,20,1.88903,2.23799
34,20,1.94137,2.26848
35,20,1.99264,2.29911
36,20,2.04289,2.32985
37,20,2.09216,2.36069
38,20,2.14048,2.39163
39,20,2.18791,2.42263
40,20,2.23448,2.4537
41,20,2.28025,2.48481
42,20,2.32523,2.51595
43,20,2.36949,2.5471
44,20,2.41304,2.57824
45,20,2.45593,2.60936
46,20,2.49818,2.64044
47,20,2.53982,2.67146
48,20,2.58088,2.7024
49,20,2.62138,2.73324
50,20,2.66134,2.76397
51,20,2.70077,2.79456
52,20,2.7397,2.825
53,20,2.77813,2.85527
54,20,2.81609,2.88533
55,20,2.85357,2.91519
56,20,2.89059,2.94481
57,20,2.92715,2.97417
58,20,2.96326,3.00325
59,20,2.99894,3.03204
60,20,3.03417,3.06051
61,20,3.06896,3.08864
62,20,3.10332,3.1164
63,20,3.13725,3.14378
1,21,1.12777,1.41023
2,21,0.925,1.43243
3,21,0.785682,1.45497
4,21,0.697248,1.47784
5,21,0.646008,1.50106
6,21,0.621381,1.52461
7,21,0.615885,1.54849
8,21,0.624741,1.57271
9,21,0.644641,1.59726
10,21,0.673114,1.62213
11,21,0.708353,1.64733
12,21,0.749043,1.67285
13,21,0.794175,1.69869
14,21,0.842941,1.72484
15,21,0.894675,1.7513
16,21,0.948817,1.77807
17,21,1.00488,1.80514
18,21,1.06245,1.8325
19,21,1.12115,1.86015
20,21,1.18063,1.88809
21,21,1.24059,1.91629
22,21,1.30076,1.94477
23,21,1.3609,1.97351
24,21,1.42079,2.0025
25,21,1.48026,2.03174
26,21,1.53915,2.06121
27,21,1.59736,2.0909
28,21,1.65478,2.12082
29,21,1.71134,2.15093
30,21,1.767,2.18125
31,21,1.82172,2.21174
32,21,1.8755,2.24241
33,21,1.92832,2.27323
34,21,1.98019,2.30421
35,21,2.03114,2.33531
36,21,2.08119,2.36654
37,21,2.13036,2.39787
38,21,2.17868,2.42929
39,21,2.22619,2.46078
40,21,2.27292,2.49234
41,21,2.3189,2.52394
42,21,2.36416,2.55557
43,21,2.40874,2.58721
44,21,2.45265,2.61884
45,21,2.49594,2.65045
46,21,2.53862,2.68202
47,21,2.58071,2.71352
48,21,2.62224,2.74495
49,21,2.66324,2.77628
50,21,2.7037,2.80749
51,21,2.74365,2.83857
52,21,2.78311,2.86949
53,21,2.82208,2.90023
54,21,2.86058,2.93077
55,21,2.89861,2.9611
56,21,2.93618,2.99118
57,21,2.97329,3.02101
58,21,3.00995,3.05055
59,21,3.04617,3.07979
60,21,3.08195,3.1087
61,21,3.11729,3.13727
62,21,3.15219,3.16548
63,21,3.18666,3.19329
1,22,1.22326,1.43243
2,22,1.06397,1.45498
3,22,0.942178,1.47788
4,22,0.856161,1.50112
5,22,0.800063,1.5247
6,22,0.767666,1.54862
7,22,0.753716,1.57288
8,22,0.754219,1.59748
9,22,0.766162,1.62241
10,22,0.787233,1.64767
11,22,0.81566,1.67327
12,22,0.850081,1.69919
13,22,0.889426,1.72544
14,22,0.932832,1.752
15,22,0.979586,1.77888
16,22,1.02909,1.80607
17,22,1.08084,1.83357
18,22,1.13437,1.86136
19,22,1.18931,1.88945
20,22,1.2453,1.91782
21,22,1.30202,1.94647
22,22,1.35921,1.9754
23,22,1.41662,2.00459
24,22,1.47404,2.03404
25,22,1.53128,2.06373
26,22,1.58819,2.09367
27,22,1.64464,2.12383
28,22,1.70052,2.15421
29,22,1.75575,2.18481
30,22,1.81028,2.2156
31,22,1.86405,2.24657
32,22,1.91705,2.27772
33,22,1.96925,2.30903
34,22,2.02064,2.34049
35,22,2.07124,2.37209
36,22,2.12105,2.4038
37,22,2.17009,2.43563
38,22,2.21837,2.46754
39,22,2.26592,2.49954
40,22,2.31276,2.53159
41,22,2.35892,2.56369
42,22,2.40441,2.59581
43,22,2.44927,2.62795
44,22,2.49351,2.66008
45,22,2.53716,2.69219
46,22,2.58023,2.72425
47,22,2.62274,2.75626
48,22,2.66472,2.78818
49,22,2.70618,2.82
50,22,2.74712,2.85171
51,22,2.78757,2.88327
52,22,2.82753,2.91468
53,22,2.86702,2.9459
54,22,2.90604,2.97692
55,22,2.94459,3.00773
56,22,2.98269,3.03829
57,22,3.02033,3.06858
58,22,3.05753,3.09859
59,22,3.09428,3.12829
60,22,3.13059,3.15766
61,22,3.16646,3.18668
62,22,3.20188,3.21533
63,22,3.23686,3.24358
1,23,1.29177,1.45499
2,23,1.16615,1.4779
3,23,1.0636,1.50115
4,23,0.985864,1.52476
5,23,0.93113,1.54871
6,23,0.896219,1.573
7,23,0.877815,1.59765
8,23,0.872983,1.62263
9,23,0.879284,1.64796
10,23,0.894727,1.67362
11,23,0.917707,1.69962
12,23,0.946933,1.72595
13,23,0.981357,1.75261
14,23,1.02012,1.77959
15,23,1.06249,1.8069
16,23,1.10787,1.83451
17,23,1.15574,1.86244
18,23,1.20564,1.89067
19,23,1.25717,1.9192
20,23,1.30997,1.94802
21,23,1.36374,1.97712
22,23,1.4182,2.00651
23,23,1.47309,2.03616
24,23,1.52822,2.06607
25,23,1.58338,2.09623
26,23,1.63842,2.12664
27,23,1.69321,2.15728
28,23,1.74764,2.18814
29,23,1.8016,2.21921
30,23,1.85504,2.25049
31,23,1.90789,2.28195
32,23,1.96011,2.31359
33,23,2.01169,2.34539
34,23,2.0626,2.37735
35,23,2.11283,2.40944
36,23,2.16238,2.44166
37,23,2.21126,2.47398
38,23,2.25947,2.5064
39,23,2.30703,2.5389
40,23,2.35395,2.57146
41,23,2.40025,2.60406
42,23,2.44595,2.63669
43,23,2.49105,2.66934
44,23,2.53559,2.70197
45,23,2.57956,2.73458
46,23,2.623,2.76715
47,23,2.66591,2.79966
48,23,2.7083,2.83209
49,23,2.7502,2.86441
50,23,2.7916,2.89661
51,23,2.83252,2.92868
52,23,2.87296,2.96058
53,23,2.91294,2.99229
54,23,2.95246,3.0238
55,23,2.99152,3.05509
56,23,3.03013,3.08613
57,23,3.06829,3.1169
58,23,3.106,3.14738
59,23,3.14327,3.17755
60,23,3.18009,3.20739
61,23,3.21647,3.23686
62,23,3.2524,3.26596
63,23,3.28789,3.29465
1,24,1.34595,1.4779
2,24,1.24597,1.50117
3,24,1.16092,1.52479
4,24,1.09329,1.54877
5,24,1.0431,1.5731
6,24,1.009,1.59778
7,24,0.989073,1.62281
8,24,0.981351,1.64819
9,24,0.984004,1.67391
10,24,0.995428,1.69998
11,24,1.01426,1.72639
12,24,1.03934,1.75313
13,24,1.0697,1.78021
14,24,1.10454,1.80762
15,24,1.14314,1.83535
16,24,1.18493,1.8634
17,24,1.22937,1.89177
18,24,1.27603,1.92044
19,24,1.3245,1.94942
20,24,1.37444,1.9787
21,24,1.42553,2.00826
22,24,1.4775,2.0381
23,24,1.53009,2.06822
24,24,1.58311,2.0986
25,24,1.63636,2.12924
26,24,1.68967,2.16013
27,24,1.74291,2.19125
28,24,1.79596,2.2226
29,24,1.84872,2.25416
30,24,1.90111,2.28593
31,24,1.95308,2.31789
32,24,2.00456,2.35002
33,24,2.05553,2.38233
34,24,2.10594,2.41479
35,24,2.1558,2.44739
36,24,2.20508,2.48011
37,24,2.25378,2.51294
38,24,2.30191,2.54587
39,24,2.34946,2.57888
40,24,2.39644,2.61195
41,24,2.44286,2.64507
42,24,2.48873,2.67821
43,24,2.53406,2.71137
44,24,2.57886,2.74452
45,24,2.62314,2.77765
46,24,2.66691,2.81073
47,24,2.71019,2.84375
48,24,2.75298,2.87669
49,24,2.79529,2.90952
50,24,2.83712,2.94223
51,24,2.87849,2.9748
52,24,2.9194,3.0072
53,24,2.95985,3.03941
54,24,2.99985,3.07142
55,24,3.0394,3.1032
56,24,3.07851,3.13473
57,24,3.11716,3.16599
58,24,3.15537,3.19695
59,24,3.19314,3.22759
60,24,3.23046,3.25789
61,24,3.26733,3.28783
62,24,3.30376,3.31739
63,24,3.33973,3.34654
1,25,1.39179,1.50118
2,25,1.31159,1.52481
3,25,1.24154,1.5488
4,25,1.184,1.57316
5,25,1.13971,1.59787
6,25,1.10833,1.62294
7,25,1.08887,1.64836
8,25,1.08009,1.67414
9,25,1.0807,1.70027
10,25,1.08948,1.72675
11,25,1.10531,1.75357
12,25,1.12722,1.78074
13,25,1.15435,1.80824
14,25,1.18595,1.83608
15,25,1.22139,1.86425
16,25,1.26009,1.89275
17,25,1.30157,1.92156
18,25,1.34538,1.95069
19,25,1.39115,1.98012
20,25,1.43853,2.00986
21,25,1.48722,2.03989
22,25,1.53694,2.0702
23,25,1.58745,2.10079
24,25,1.63854,2.13165
25,25,1.69003,2.16277
26,25,1.74175,2.19414
27,25,1.79355,2.22576
28,25,1.84532,2.2576
29,25,1.89696,2.28966
30,25,1.94837,2.32192
31,25,1.9995,2.35439
32,25,2.05027,2.38703
33,25,2.10064,2.41985
34,25,2.15059,2.45282
35,25,2.20007,2.48593
36,25,2.24908,2.51917
37,25,2.2976,2.55252
38,25,2.34562,2.58596
39,25,2.39315,2.61949
40,25,2.44017,2.65308
41,25,2.48669,2.68672
42,25,2.53271,2.72039
43,25,2.57824,2.75407
44,25,2.62329,2.78774
45,25,2.66786,2.82139
46,25,2.71195,2.85499
47,25,2.75557,2.88853
48,25,2.79873,2.92199
49,25,2.84144,2.95534
50,25,2.88369,2.98856
51,25,2.92549,3.02164
52,25,2.96684,3.05455
53,25,3.00775,3.08728
54,25,3.04821,3.11979
55,25,3.08824,3.15207
56,25,3.12782,3.1841
57,25,3.16696,3.21584
58,25,3.20565,3.24729
59,25,3.24391,3.27842
60,25,3.28171,3.3092
61,25,3.31906,3.33961
62,25,3.35597,3.36963
63,25,3.39242,3.39924
1,26,1.43242,1.52482
2,26,1.3678,1.54882
3,26,1.31039,1.57319
4,26,1.26219,1.59793
5,26,1.22418,1.62303
6,26,1.1965,1.64849
7,26,1.17875,1.67432
8,26,1.17021,1.7005
9,26,1.17,1.72705
10,26,1.17724,1.75394
11,26,1.19106,1.78119
12,26,1.21065,1.80878
13,26,1.23529,1.83672
14,26,1.26431,1.865
15,26,1.29714,1.89361
16,26,1.33326,1.92255
17,26,1.37221,1.95182
18,26,1.41357,1.98141
19,26,1.45697,2.0113
20,26,1.5021,2.04151
21,26,1.54865,2.07201
22,26,1.59636,2.1028
23,26,1.645,2.13387
24,26,1.69436,2.16522
25,26,1.74425,2.19683
26,26,1.79451,2.2287
27,26,1.845,2.26081
28,26,1.8956,2.29315
29,26,1.94619,2.32571
30,26,1.99669,2.35849
31,26,2.04702,2.39146
32,26,2.09712,2.42462
33,26,2.14694,2.45795
34,26,2.19642,2.49144
35,26,2.24555,2.52507
36,26,2.2943,2.55884
37,26,2.34264,2.59271
38,26,2.39055,2.62669
39,26,2.43804,2.66074
40,26,2.48509,2.69486
41,26,2.5317,2.72903
42,26,2.57786,2.76323
43,26,2.62358,2.79744
44,26,2.66886,2.83164
45,26,2.71369,2.86582
46,26,2.75808,2.89995
47,26,2.80204,2.93402
48,26,2.84555,2.968
49,26,2.88863,3.00188
50,26,2.93128,3.03563
51,26,2.9735,3.06923
52,26,3.01528,3.10266
53,26,3.05663,3.1359
54,26,3.09755,3.16892
55,26,3.13803,3.20171
56,26,3.17808,3.23424
57,26,3.21768,3.26649
58,26,3.25685,3.29843
59,26,3.29557,3.33005
60,26,3.33385,3.36131
61,26,3.37167,3.3922
62,26,3.40904,3.4227
63,26,3.44595,3.45277
1,27,1.46967,1.54883
2,27,1.41756,1.57321
3,27,1.37077,1.59797
4,27,1.33095,1.62309
5,27,1.29907,1.64859
6,27,1.27551,1.67445
7,27,1.26019,1.70069
8,27,1.25275,1.72728
9,27,1.25263,1.75424
10,27,1.25921,1.78156
11,27,1.27182,1.80924
12,27,1.28983,1.83727
13,27,1.31263,1.86564
14,27,1.33966,1.89437
15,27,1.3704,1.92343
16,27,1.4044,1.95283
17,27,1.44122,1.98256
18,27,1.4805,2.01261
19,27,1.52187,2.04298
20,27,1.56504,2.07366
21,27,1.60972,2.10464
22,27,1.65566,2.13591
23,27,1.70263,2.16748
24,27,1.75044,2.19932
25,27,1.7989,2.23143
26,27,1.84784,2.26379
27,27,1.89714,2.29641
28,27,1.94665,2.32926
29,27,1.99629,2.36234
30,27,2.04595,2.39563
31,27,2.09555,2.42912
32,27,2.14502,2.4628
33,27,2.19431,2.49666
34,27,2.24338,2.53068
35,27,2.29217,2.56484
36,27,2.34066,2.59913
37,27,2.38882,2.63354
38,27,2.43664,2.66805
39,27,2.48409,2.70264
40,27,2.53116,2.7373
41,27,2.57785,2.77201
42,27,2.62414,2.80674
43,27,2.67004,2.84149
44,27,2.71553,2.87623
45,27,2.76062,2.91095
46,27,2.8053,2.94562
47,27,2.84957,2.98022
48,27,2.89343,3.01474
49,27,2.93687,3.04915
50,27,2.97991,3.08343
51,27,3.02252,3.11756
52,27,3.06472,3.15152
53,27,3.1065,3.18528
54,27,3.14785,3.21882
55,27,3.18878,3.25213
56,27,3.22928,3.28517
57,27,3.26934,3.31793
58,27,3.30897,3.35037
59,27,3.34815,3.38249
60,27,3.38688,3.41424
61,27,3.42517,3.44562
62,27,3.46299,3.4766
63,27,3.50035,3.50714
1,28,1.50462,1.57322
2,28,1.46275,1.59799
3,28,1.42494,1.62313
4,28,1.39253,1.64865
5,28,1.36641,1.67455
6,28,1.34704,1.70082
7,28,1.33454,1.72747
8,28,1.32875,1.75448
9,28,1.32936,1.78187
10,28,1.33593,1.80962
11,28,1.34798,1.83773
12,28,1.36501,1.8662
13,28,1.38654,1.89502
14,28,1.41209,1.9242
15,28,1.44122,1.95372
16,28,1.47352,1.98358
17,28,1.5086,2.01378
18,28,1.54613,2.0443
19,28,1.58579,2.07515
20,28,1.62727,2.10631
21,28,1.67034,2.13778
22,28,1.71473,2.16955
23,28,1.76024,2.20161
24,28,1.80667,2.23395
25,28,1.85385,2.26657
26,28,1.90162,2.29944
27,28,1.94984,2.33257
28,28,1.99839,2.36594
29,28,2.04716,2.39954
30,28,2.09605,2.43336
31,28,2.14498,2.46738
32,28,2.19388,2.50159
33,28,2.24269,2.53598
34,28,2.29136,2.57053
35,28,2.33984,2.60523
36,28,2.3881,2.64006
37,28,2.4361,2.67501
38,28,2.48382,2.71007
39,28,2.53124,2.7452
40,28,2.57834,2.78041
41,28,2.6251,2.81566
42,28,2.67152,2.85094
43,28,2.71759,2.88624
44,28,2.76329,2.92153
45,28,2.80862,2.95679
46,28,2.85358,2.99201
47,28,2.89815,3.02716
48,28,2.94234,3.06222
49,28,2.98614,3.09717
50,28,3.02955,3.13199
51,28,3.07255,3.16665
52,28,3.11516,3.20115
53,28,3.15735,3.23544
54,28,3.19913,3.26951
55,28,3.24049,3.30334
56,28,3.28143,3.3369
57,28,3.32194,3.37018
58,28,3.36201,3.40313
59,28,3.40165,3.43575
60,28,3.44083,3.46801
61,28,3.47956,3.49988
62,28,3.51782,3.53134
63,28,3.55562,3.56237
1,29,1.538,1.59799
2,29,1.50464,1.62315
3,29,1.47448,1.64869
4,29,1.4486,1.67462
5,29,1.42778,1.70092
6,29,1.4125,1.72761
7,29,1.40297,1.75467
8,29,1.39916,1.78211
9,29,1.40092,1.80993
10,29,1.40797,1.83811
11,29,1.41996,1.86667
12,29,1.43652,1.89559
13,29,1.45724,1.92487
14,29,1.48176,1.9545
15,29,1.50968,1.98449
16,29,1.54066,2.01482
17,29,1.57436,2.04549
18,29,1.61046,2.0765
19,29,1.64869,2.10783
20,29,1.68876,2.13948
21,29,1.73044,2.17145
22,29,1.7735,2.20372
23,29,1.81774,2.23628
24,29,1.86298,2.26913
25,29,1.90903,2.30226
26,29,1.95576,2.33565
27,29,2.00303,2.36931
28,29,2.05071,2.4032
29,29,2.0987,2.43733
30,29,2.14691,2.47168
31,29,2.19524,2.50623
32,29,2.24362,2.54098
33,29,2.292,2.57591
34,29,2.34031,2.61101
35,29,2.38851,2.64626
36,29,2.43655,2.68164
37,29,2.48441,2.71714
38,29,2.53205,2.75274
39,29,2.57944,2.78843
40,29,2.62657,2.82419
41,29,2.67342,2.86
42,29,2.71996,2.89584
43,29,2.7662,2.93169
44,29,2.8121,2.96754
45,29,2.85767,3.00335
46,29,2.9029,3.03912
47,29,2.94777,3.07483
48,29,2.99229,3.11044
49,29,3.03643,3.14594
50,29,3.0802,3.18131
51,29,3.12359,3.21652
52,29,3.16658,3.25156
53,29,3.20919,3.28639
54,29,3.25138,3.321
55,29,3.29317,3.35536
56,29,3.33454,3.38945
57,29,3.37548,3.42325
58,29,3.416,3.45673
59,29,3.45607,3.48986
60,29,3.49569,3.52262
61,29,3.53485,3.555
62,29,3.57355,3.58695
63,29,3.61178,3.61847
1,30,1.57029,1.62316
2,30,1.54411,1.64871
3,30,1.52052,1.67466
4,30,1.5004,1.70099
5,30,1.48441,1.72771
6,30,1.47302,1.75481
7,30,1.46646,1.7823
8,30,1.46481,1.81018
9,30,1.46801,1.83843
10,30,1.47589,1.86706
11,30,1.4882,1.89606
12,30,1.50467,1.92544
13,30,1.52499,1.95518
14,30,1.54885,1.98528
15,30,1.57592,2.01574
16,30,1.60592,2.04655
17,30,1.63854,2.0777
18,30,1.67351,2.1092
19,30,1.71057,2.14102
20,30,1.74947,2.17317
21,30,1.79,2.20564
22,30,1.83193,2.23842
23,30,1.87509,2.2715
24,30,1.91929,2.30487
25,30,1.96437,2.33852
26,30,2.0102,2.37244
27,30,2.05663,2.40662
28,30,2.10355,2.44105
29,30,2.15085,2.47571
30,30,2.19845,2.5106
31,30,2.24624,2.5457
32,30,2.29417,2.581
33,30,2.34216,2.61648
34,30,2.39016,2.65213
35,30,2.43811,2.68793
36,30,2.48597,2.72387
37,30,2.53371,2.75993
38,30,2.58128,2.79609
39,30,2.62866,2.83235
40,30,2.67583,2.86867
41,30,2.72276,2.90504
42,30,2.76944,2.94144
43,30,2.81584,2.97786
44,30,2.86195,3.01427
45,30,2.90776,3.05065
46,30,2.95325,3.08698
47,30,2.99842,3.12325
48,30,3.04325,3.15942
49,30,3.08773,3.19548
50,30,3.13186,3.23141
51,30,3.17562,3.26717
52,30,3.219,3.30276
53,30,3.262,3.33814
54,30,3.30461,3.3733
55,30,3.34681,3.4082
56,30,3.38861,3.44283
57,30,3.42998,3.47716
58,30,3.47092,3.51116
59,30,3.51142,3.54482
60,30,3.55147,3.5781
61,30,3.59106,3.61098
62,30,3.63019,3.64344
63,30,3.66883,3.67545
1,31,1.60183,1.64872
2,31,1.5818,1.67468
3,31,1.5639,1.70103
4,31,1.54886,1.72777
5,31,1.53726,1.75492
6,31,1.52951,1.78245
7,31,1.52586,1.81037
8,31,1.52644,1.83868
9,31,1.53125,1.86738
10,31,1.54019,1.89646
11,31,1.55311,1.92592
12,31,1.56981,1.95576
13,31,1.59003,1.98597
14,31,1.61355,2.01654
15,31,1.64009,2.04748
16,31,1.6694,2.07878
17,31,1.70122,2.11042
18,31,1.73532,2.14241
19,31,1.77146,2.17474
20,31,1.80942,2.2074
21,31,1.84899,2.24038
22,31,1.88999,2.27367
23,31,1.93223,2.30727
24,31,1.97556,2.34116
25,31,2.01981,2.37534
26,31,2.06486,2.4098
27,31,2.11057,2.44452
28,31,2.15683,2.47949
29,31,2.20354,2.5147
30,31,2.25061,2.55014
31,31,2.29794,2.58579
32,31,2.34547,2.62164
33,31,2.39313,2.65768
34,31,2.44085,2.69389
35,31,2.48859,2.73026
36,31,2.5363,2.76676
37,31,2.58394,2.80339
38,31,2.63147,2.84013
39,31,2.67886,2.87695
40,31,2.72608,2.91384
41,31,2.77311,2.95079
42,31,2.81992,2.98776
43,31,2.86649,3.02475
44,31,2.91281,3.06174
45,31,2.95885,3.09869
46,31,3.00461,3.1356
47,31,3.05007,3.17243
48,31,3.09521,3.20917
49,31,3.14003,3.2458
50,31,3.18451,3.28229
51,31,3.22864,3.31862
52,31,3.2724,3.35477
53,31,3.3158,3.39071
54,31,3.35881,3.42642
55,31,3.40142,3.46187
56,31,3.44363,3.49705
57,31,3.48542,3.53191
58,31,3.52679,3.56645
59,31,3.56771,3.60064
60,31,3.60819,3.63444
61,31,3.6482,3.66784
62,31,3.68775,3.70082
63,31,3.7268,3.73333
1,32,1.63287,1.67468
2,32,1.61815,1.70105
3,32,1.60523,1.72782
4,32,1.59471,1.75498
5,32,1.58708,1.78255
6,32,1.58272,1.81052
7,32,1.58187,1.83888
8,32,1.58468,1.86764
9,32,1.59119,1.89679
10,32,1.60136,1.92633
11,32,1.6151,1.95625
12,32,1.63225,1.98656
13,32,1.65265,2.01724
14,32,1.67608,2.0483
15,32,1.70235,2.07972
16,32,1.73122,2.11151
17,32,1.76249,2.14366
18,32,1.79595,2.17615
19,32,1.83138,2.20899
20,32,1.8686,2.24216
21,32,1.90742,2.27566
22,32,1.94766,2.30947
23,32,1.98915,2.3436
24,32,2.03175,2.37803
25,32,2.07531,2.41275
26,32,2.11971,2.44775
27,32,2.16481,2.48301
28,32,2.21052,2.51853
29,32,2.25672,2.5543
30,32,2.30334,2.59029
31,32,2.35028,2.62651
32,32,2.39747,2.66293
33,32,2.44484,2.69953
34,32,2.49234,2.73631
35,32,2.53991,2.77325
36,32,2.5875,2.81033
37,32,2.63507,2.84754
38,32,2.68258,2.88485
39,32,2.73,2.92225
40,32,2.77729,2.95973
41,32,2.82442,2.99725
42,32,2.87137,3.03481
43,32,2.91813,3.07239
44,32,2.96465,3.10995
45,32,3.01094,3.14749
46,32,3.05697,3.18497
47,32,3.10272,3.22239
48,32,3.14818,3.25971
49,32,3.19333,3.29692
50,32,3.23815,3.33398
51,32,3.28265,3.37089
52,32,3.32679,3.4076
53,32,3.37058,3.44411
54,32,3.41398,3.48038
55,32,3.457,3.51639
56,32,3.49963,3.55212
57,32,3.54183,3.58753
58,32,3.58361,3.62262
59,32,3.62496,3.65734
60,32,3.66585,3.69168
61,32,3.70628,3.72561
62,32,3.74624,3.7591
63,32,3.7857,3.79212
1,33,1.6636,1.70106
2,33,1.65351,1.72784
3,33,1.64498,1.75502
4,33,1.63849,1.78262
5,33,1.63447,1.81062
6,33,1.63325,1.83903
7,33,1.63507,1.86784
8,33,1.64007,1.89705
9,33,1.64832,1.92666
10,33,1.65983,1.95666
11,33,1.67453,1.98706
12,33,1.69233,2.01784
13,33,1.71309,2.04901
14,33,1.73666,2.08055
15,33,1.76286,2.11247
16,33,1.79152,2.14476
17,33,1.82245,2.17741
18,33,1.85547,2.21042
19,33,1.8904,2.24377
20,33,1.92707,2.27747
21,33,1.9653,2.31149
22,33,2.00494,2.34584
23,33,2.04584,2.38051
24,33,2.08786,2.41548
25,33,2.13085,2.45074
26,33,2.17471,2.48629
27,33,2.21931,2.52211
28,33,2.26456,2.55819
29,33,2.31035,2.59452
30,33,2.35659,2.63109
31,33,2.4032,2.66787
32,33,2.45012,2.70486
33,33,2.49727,2.74204
34,33,2.54459,2.7794
35,33,2.59203,2.81692
36,33,2.63954,2.85459
37,33,2.68707,2.89238
38,33,2.73459,2.93028
39,33,2.78205,2.96827
40,33,2.82942,3.00634
41,33,2.87668,3.04445
42,33,2.92379,3.08261
43,33,2.97073,3.12077
44,33,3.01748,3.15893
45,33,3.06401,3.19705
46,33,3.11031,3.23513
47,33,3.15635,3.27314
48,33,3.20212,3.31104
49,33,3.24761,3.34884
50,33,3.29279,3.38649
51,33,3.33764,3.42397
52,33,3.38216,3.46126
53,33,3.42633,3.49834
54,33,3.47014,3.53519
55,33,3.51356,3.57176
56,33,3.55659,3.60805
57,33,3.59921,3.64403
58,33,3.6414,3.67966
59,33,3.68316,3.71493
60,33,3.72447,3.74981
61,33,3.76531,3.78427
62,33,3.80567,3.81829
63,33,3.84554,3.85184
1,34,1.69416,1.72784
2,34,1.68816,1.75505
3,34,1.68351,1.78266
4,34,1.68065,1.81069
5,34,1.67991,1.83914
6,34,1.6816,1.86799
7,34,1.68594,1.89725
8,34,1.69307,1.92692
9,34,1.70307,1.957
10,34,1.71596,1.98748
11,34,1.73173,2.01835
12,34,1.75031,2.04962
13,34,1.7716,2.08128
14,34,1.79547,2.11332
15,34,1.8218,2.14574
16,34,1.85043,2.17854
17,34,1.88121,2.2117
18,34,1.91397,2.24523
19,34,1.94858,2.27911
20,34,1.98486,2.31333
21,34,2.02266,2.34789
22,34,2.06186,2.38279
23,34,2.1023,2.418
24,34,2.14386,2.45352
25,34,2.18642,2.48934
26,34,2.22985,2.52545
27,34,2.27405,2.56183
28,34,2.31893,2.59848
29,34,2.36438,2.63538
30,34,2.41033,2.67252
31,34,2.45669,2.70988
32,34,2.50339,2.74746
33,34,2.55037,2.78523
34,34,2.59756,2.82317
35,34,2.64491,2.86128
36,34,2.69238,2.89954
37,34,2.7399,2.93793
38,34,2.78745,2.97643
39,34,2.83498,3.01502
40,34,2.88246,3.05368
41,34,2.92985,3.0924
42,34,2.97714,3.13115
43,34,3.02428,3.16991
44,34,3.07126,3.20867
45,34,3.11804,3.2474
46,34,3.16462,3.28608
47,34,3.21096,3.32468
48,34,3.25705,3.36319
49,34,3.30287,3.40157
50,34,3.3484,3.43981
51,34,3.39362,3.47789
52,34,3.43852,3.51577
53,34,3.48307,3.55343
54,34,3.52727,3.59086
55,34,3.57109,3.62801
56,34,3.61453,3.66487
57,34,3.65756,3.70141
58,34,3.70016,3.73761
59,34,3.74233,3.77344
60,34,3.78405,3.80886
61,34,3.82529,3.84387
62,34,3.86606,3.87842
63,34,3.90632,3.9125
1,35,1.72465,1.75505
2,35,1.72228,1.78268
3,35,1.72112,1.81073
4,35,1.72152,1.83921
5,35,1.72379,1.8681
6,35,1.72817,1.89741
7,35,1.73489,1.92713
8,35,1.74406,1.95727
9,35,1.75579,1.98782
10,35,1.77011,2.01877
11,35,1.78702,2.05013
12,35,1.80648,2.08189
13,35,1.82841,2.11405
14,35,1.85274,2.1466
15,35,1.87934,2.17953
16,35,1.90809,2.21284
17,35,1.93887,2.24653
18,35,1.97154,2.28058
19,35,2.00597,2.315
20,35,2.04201,2.34976
21,35,2.07954,2.38487
22,35,2.11843,2.42031
23,35,2.15855,2.45607
24,35,2.19977,2.49215
25,35,2.242,2.52854
26,35,2.28511,2.56522
27,35,2.32901,2.60217
28,35,2.37361,2.6394
29,35,2.41881,2.67688
30,35,2.46453,2.71461
31,35,2.5107,2.75256
32,35,2.55725,2.79072
33,35,2.60411,2.82909
34,35,2.65122,2.86763
35,35,2.69853,2.90634
36,35,2.74598,2.9452
37,35,2.79354,2.98419
38,35,2.84115,3.0233
39,35,2.88877,3.0625
40,35,2.93638,3.10177
41,35,2.98394,3.1411
42,35,3.03141,3.18046
43,35,3.07876,3.21983
44,35,3.12598,3.2592
45,35,3.17303,3.29854
46,35,3.21989,3.33783
47,35,3.26654,3.37704
48,35,3.31295,3.41615
49,35,3.35911,3.45514
50,35,3.40499,3.49398
51,35,3.45058,3.53266
52,35,3.49585,3.57114
53,35,3.5408,3.60939
54,35,3.58539,3.6474
55,35,3.62961,3.68514
56,35,3.67345,3.72259
57,35,3.71689,3.7597
58,35,3.7599,3.79647
59,35,3.80248,3.83286
60,35,3.8446,3.86885
61,35,3.88625,3.9044
62,35,3.92742,3.9395
63,35,3.96808,3.97411
1,36,1.75517,1.78269
2,36,1.75606,1.81076
3,36,1.75803,1.83925
4,36,1.7614,1.86817
5,36,1.76641,1.89752
6,36,1.7733,1.92729
7,36,1.78225,1.95748
8,36,1.79339,1.98809
9,36,1.80682,2.01912
10,36,1.82257,2.05056
11,36,1.84066,2.08242
12,36,1.86107,2.11468
13,36,1.88375,2.14734
14,36,1.90863,2.1804
15,36,1.93563,2.21385
16,36,1.96464,2.24769
17,36,1.99556,2.28191
18,36,2.02828,2.3165
19,36,2.06266,2.35145
20,36,2.09861,2.38676
21,36,2.13598,2.42242
22,36,2.17468,2.45842
23,36,2.21459,2.49475
24,36,2.2556,2.5314
25,36,2.2976,2.56836
26,36,2.34049,2.60561
27,36,2.38418,2.64315
28,36,2.42858,2.68096
29,36,2.47361,2.71904
30,36,2.51918,2.75735
31,36,2.56523,2.7959
32,36,2.61168,2.83467
33,36,2.65848,2.87364
34,36,2.70555,2.91279
35,36,2.75286,2.95211
36,36,2.80034,2.99158
37,36,2.84796,3.03119
38,36,2.89566,3.07091
39,36,2.94341,3.11072
40,36,2.99117,3.15061
41,36,3.0389,3.19056
42,36,3.08658,3.23054
43,36,3.13416,3.27054
44,36,3.18163,3.31053
45,36,3.22896,3.35048
46,36,3.27611,3.39039
47,36,3.32307,3.43022
48,36,3.36982,3.46995
49,36,3.41632,3.50955
50,36,3.46256,3.54901
51,36,3.50852,3.58829
52,36,3.55417,3.62737
53,36,3.5995,3.66623
54,36,3.64449,3.70484
55,36,3.68912,3.74318
56,36,3.73336,3.78121
57,36,3.7772,3.81891
58,36,3.82062,3.85626
59,36,3.86361,3.89322
60,36,3.90614,3.92977
61,36,3.9482,3.96589
62,36,3.98976,4.00154
63,36,4.03081,4.0367
1,37,1.78579,1.81076
2,37,1.78962,1.83927
3,37,1.79443,1.86821
4,37,1.8005,1.89759
5,37,1.80805,1.9274
6,37,1.81727,1.95764
7,37,1.82833,1.9883
8,37,1.84135,2.0194
9,37,1.85642,2.05092
10,37,1.87359,2.08286
11,37,1.89289,2.11521
12,37,1.91431,2.14798
13,37,1.9378,2.18116
14,37,1.96334,2.21474
15,37,1.99083,2.24872
16,37,2.02022,2.28309
17,37,2.05139,2.31784
18,37,2.08426,2.35298
19,37,2.11873,2.38848
20,37,2.15469,2.42435
21,37,2.19204,2.46057
22,37,2.23066,2.49714
23,37,2.27047,2.53404
24,37,2.31136,2.57126
25,37,2.35323,2.6088
26,37,2.39599,2.64664
27,37,2.43956,2.68477
28,37,2.48384,2.72318
29,37,2.52877,2.76185
30,37,2.57426,2.80078
31,37,2.62025,2.83993
32,37,2.66666,2.87931
33,37,2.71344,2.91889
34,37,2.76054,2.95866
35,37,2.80788,2.9986
36,37,2.85544,3.03869
37,37,2.90315,3.07892
38,37,2.95097,3.11927
39,37,2.99887,3.15971
40,37,3.04681,3.20023
41,37,3.09474,3.2408
42,37,3.14264,3.28142
43,37,3.19047,3.32204
44,37,3.23821,3.36266
45,37,3.28582,3.40325
46,37,3.33328,3.44378
47,37,3.38057,3.48423
48,37,3.42765,3.52459
49,37,3.4745,3.56482
50,37,3.52111,3.60489
51,37,3.56744,3.6448
52,37,3.61348,3.6845
53,37,3.6592,3.72397
54,37,3.70459,3.76319
55,37,3.74961,3.80212
56,37,3.79426,3.84075
57,37,3.83851,3.87905
58,37,3.88235,3.91698
59,37,3.92574,3.95453
60,37,3.96868,3.99166
61,37,4.01113,4.02834
62,37,4.0531,4.06455
63,37,4.09454,4.10026
1,38,1.81657,1.83928
2,38,1.82306,1.86824
3,38,1.83047,1.89763
4,38,1.83902,1.92747
5,38,1.84891,1.95775
6,38,1.8603,1.98846
7,38,1.87335,2.01962
8,38,1.88817,2.0512
9,38,1.90484,2.08321
10,38,1.92342,2.11566
11,38,1.94394,2.14852
12,38,1.96639,2.18181
13,38,1.99076,2.21551
14,38,2.01701,2.24962
15,38,2.04509,2.28413
16,38,2.07494,2.31904
17,38,2.10647,2.35434
18,38,2.1396,2.39003
19,38,2.17426,2.4261
20,38,2.21034,2.46253
21,38,2.24775,2.49932
22,38,2.2864,2.53646
23,38,2.32621,2.57394
24,38,2.36707,2.61176
25,38,2.4089,2.64989
26,38,2.45162,2.68832
27,38,2.49514,2.72705
28,38,2.53939,2.76607
29,38,2.58429,2.80535
30,38,2.62976,2.84488
31,38,2.67575,2.88466
32,38,2.72218,2.92465
33,38,2.769,2.96486
34,38,2.81616,3.00525
35,38,2.86359,3.04582
36,38,2.91125,3.08655
37,38,2.95909,3.12741
38,38,3.00707,3.16839
39,38,3.05515,3.20947
40,38,3.10328,3.25062
41,38,3.15144,3.29184
42,38,3.19958,3.33309
43,38,3.24768,3.37436
44,38,3.2957,3.41561
45,38,3.34362,3.45684
46,38,3.3914,3.49801
47,38,3.43901,3.5391
48,38,3.48644,3.58009
49,38,3.53365,3.62095
50,38,3.58063,3.66166
51,38,3.62734,3.70219
52,38,3.67377,3.74252
53,38,3.71989,3.78261
54,38,3.76568,3.82245
55,38,3.81111,3.862
56,38,3.85617,3.90124
57,38,3.90083,3.94013
58,38,3.94507,3.97867
59,38,3.98888,4.0168
60,38,4.03222,4.05452
61,38,4.07508,4.09178
62,38,4.11744,4.12856
63,38,4.15928,4.16483
1,39,1.84756,1.86824
2,39,1.85649,1.89766
3,39,1.86628,1.92752
4,39,1.87711,1.95783
5,39,1.88917,1.98858
6,39,1.9026,2.01978
7,39,1.91753,2.05142
8,39,1.93407,2.0835
9,39,1.9523,2.11602
10,39,1.97226,2.14897
11,39,1.99399,2.18236
12,39,2.01751,2.21617
13,39,2.04279,2.2504
14,39,2.06982,2.28504
15,39,2.09855,2.3201
16,39,2.12893,2.35556
17,39,2.1609,2.39142
18,39,2.19438,2.42767
19,39,2.22931,2.4643
20,39,2.26561,2.50131
21,39,2.30318,2.53868
22,39,2.34196,2.57641
23,39,2.38185,2.61448
24,39,2.42277,2.65288
25,39,2.46465,2.69162
26,39,2.5074,2.73066
27,39,2.55096,2.77
28,39,2.59523,2.80963
29,39,2.64017,2.84952
30,39,2.68569,2.88968
31,39,2.73173,2.93008
32,39,2.77824,2.97071
33,39,2.82515,3.01155
34,39,2.87241,3.05258
35,39,2.91996,3.09379
36,39,2.96777,3.13515
37,39,3.01578,3.17666
38,39,3.06394,3.21828
39,39,3.11223,3.26001
40,39,3.16059,3.30181
41,39,3.20899,3.34368
42,39,3.2574,3.38558
43,39,3.30578,3.42749
44,39,3.3541,3.4694
45,39,3.40233,3.51128
46,39,3.45044,3.5531
47,39,3.49841,3.59484
48,39,3.54619,3.63647
49,39,3.59378,3.67798
50,39,3.64113,3.71933
51,39,3.68823,3.76049
52,39,3.73505,3.80145
53,39,3.78157,3.84218
54,39,3.82777,3.88264
55,39,3.87361,3.92282
56,39,3.91908,3.96267
57,39,3.96416,4.00218
58,39,4.00881,4.04132
59,39,4.05303,4.08006
60,39,4.09678,4.11836
61,39,4.14005,4.15621
62,39,4.18281,4.19357
63,39,4.22504,4.23042
1,40,1.87879,1.89767
2,40,1.88997,1.92754
3,40,1.90195,1.95787
4,40,1.91491,1.98866
5,40,1.92899,2.0199
6,40,1.94434,2.05159
7,40,1.96105,2.08372
8,40,1.97923,2.11631
9,40,1.99896,2.14934
10,40,2.02028,2.18281
11,40,2.04322,2.21672
12,40,2.06781,2.25106
13,40,2.09404,2.28583
14,40,2.12189,2.32103
15,40,2.15132,2.35664
16,40,2.1823,2.39266
17,40,2.21478,2.42908
18,40,2.2487,2.4659
19,40,2.28398,2.50311
20,40,2.32057,2.5407
21,40,2.35839,2.57866
22,40,2.39737,2.61698
23,40,2.43742,2.65565
24,40,2.47849,2.69466
25,40,2.52049,2.734
26,40,2.56335,2.77366
27,40,2.60701,2.81362
28,40,2.65138,2.85387
29,40,2.69641,2.8944
30,40,2.74204,2.93519
31,40,2.78819,2.97622
32,40,2.83482,3.01749
33,40,2.88187,3.05897
34,40,2.92928,3.10065
35,40,2.977,3.14251
36,40,3.02499,3.18452
37,40,3.0732,3.22668
38,40,3.12158,3.26896
39,40,3.1701,3.31135
40,40,3.21872,3.35381
41,40,3.26739,3.39633
42,40,3.31609,3.43889
43,40,3.36477,3.48147
44,40,3.41341,3.52404
45,40,3.46197,3.56657
46,40,3.51043,3.60905
47,40,3.55875,3.65145
48,40,3.6069,3.69374
49,40,3.65487,3.7359
50,40,3.70261,3.7779
51,40,3.75011,3.81971
52,40,3.79733,3.86132
53,40,3.84426,3.90268
54,40,3.89087,3.94378
55,40,3.93713,3.98459
56,40,3.98301,4.02507
57,40,4.02851,4.06521
58,40,4.07358,4.10496
59,40,4.11821,4.14431
60,40,4.16238,4.18322
61,40,4.20605,4.22166
62,40,4.24922,4.25961
63,40,4.29184,4.29704
1,41,1.9103,1.92755
2,41,1.92356,1.95789
3,41,1.93759,1.9887
4,41,1.95252,2.01997
5,41,1.9685,2.0517
6,41,1.98565,2.08389
7,41,2.00405,2.11654
8,41,2.02381,2.14964
9,41,2.04499,2.18319
10,41,2.06764,2.21719
11,41,2.09179,2.25163
12,41,2.11746,2.28651
13,41,2.14465,2.32183
14,41,2.17335,2.35758
15,41,2.20353,2.39375
16,41,2.23517,2.43033
17,41,2.26822,2.46733
18,41,2.30263,2.50473
19,41,2.33834,2.54253
20,41,2.3753,2.58071
21,41,2.41343,2.61926
22,41,2.45268,2.65819
23,41,2.49298,2.69747
24,41,2.53426,2.7371
25,41,2.57645,2.77706
26,41,2.61949,2.81734
27,41,2.66331,2.85793
28,41,2.70785,2.89881
29,41,2.75304,2.93998
30,41,2.79882,2.98141
31,41,2.84514,3.02309
32,41,2.89194,3.06501
33,41,2.93917,3.10714
34,41,2.98678,3.14948
35,41,3.03471,3.19199
36,41,3.08291,3.23467
37,41,3.13136,3.2775
38,41,3.17999,3.32044
39,41,3.22877,3.36349
40,41,3.27767,3.40663
41,41,3.32664,3.44982
42,41,3.37564,3.49305
43,41,3.42465,3.53629
44,41,3.47362,3.57953
45,41,3.52253,3.62274
46,41,3.57135,3.66588
47,41,3.62004,3.70895
48,41,3.66858,3.75191
49,41,3.71693,3.79473
50,41,3.76507,3.83739
51,41,3.81298,3.87987
52,41,3.86061,3.92213
53,41,3.90796,3.96414
54,41,3.95498,4.00589
55,41,4.00166,4.04734
56,41,4.04798,4.08846
57,41,4.09389,4.12923
58,41,4.13939,4.16961
59,41,4.18444,4.20957
60,41,4.22902,4.2491
61,41,4.27311,4.28815
62,41,4.31668,4.32669
63,41,4.3597,4.36471
1,42,1.94214,1.9579
2,42,1.95733,1.98873
3,42,1.97326,2.02002
4,42,1.99004,2.05178
5,42,2.00781,2.08401
6,42,2.02666,2.11671
7,42,2.04668,2.14987
8,42,2.06795,2.18349
9,42,2.09054,2.21757
10,42,2.11448,2.2521
11,42,2.13982,2.28709
12,42,2.16657,2.32252
13,42,2.19474,2.35839
14,42,2.22432,2.3947
15,42,2.2553,2.43144
16,42,2.28764,2.46861
17,42,2.32131,2.50619
18,42,2.35627,2.54418
19,42,2.39246,2.58257
20,42,2.42985,2.62135
21,42,2.46837,2.66051
22,42,2.50796,2.70005
23,42,2.54856,2.73995
24,42,2.59012,2.7802
25,42,2.63257,2.82079
26,42,2.67584,2.8617
27,42,2.71989,2.90293
28,42,2.76464,2.94446
29,42,2.81005,2.98628
30,42,2.85605,3.02836
31,42,2.90258,3.0707
32,42,2.9496,3.11328
33,42,2.99706,3.15607
34,42,3.0449,3.19907
35,42,3.09307,3.24226
36,42,3.14154,3.28561
37,42,3.19025,3.32911
38,42,3.23916,3.37273
39,42,3.28824,3.41646
40,42,3.33744,3.46027
41,42,3.38672,3.50415
42,42,3.43606,3.54806
43,42,3.48541,3.59198
44,42,3.53474,3.6359
45,42,3.58402,3.67979
46,42,3.63321,3.72361
47,42,3.68229,3.76736
48,42,3.73122,3.81099
49,42,3.77998,3.85449
50,42,3.82853,3.89782
51,42,3.87684,3.94096
52,42,3.9249,3.98389
53,42,3.97267,4.02657
54,42,4.02012,4.06897
55,42,4.06723,4.11108
56,42,4.11397,4.15284
57,42,4.16032,4.19425
58,42,4.20624,4.23527
59,42,4.25172,4.27586
60,42,4.29672,4.31601
61,42,4.34122,4.35567
62,42,4.3852,4.39483
63,42,4.42863,4.43344
1,43,1.97431,1.98874
2,43,1.99131,2.02005
3,43,2.00903,2.05183
4,43,2.02756,2.08409
5,43,2.04701,2.11683
6,43,2.06748,2.15004
7,43,2.08904,2.18372
8,43,2.11177,2.21788
9,43,2.13572,2.25249
10,43,2.16093,2.28757
11,43,2.18745,2.32311
12,43,2.21528,2.3591
13,43,2.24444,2.39553
14,43,2.27492,2.43241
15,43,2.30671,2.46973
16,43,2.33979,2.50748
17,43,2.37412,2.54565
18,43,2.40968,2.58424
19,43,2.44642,2.62324
20,43,2.48429,2.66263
21,43,2.52325,2.70241
22,43,2.56324,2.74257
23,43,2.60422,2.7831
24,43,2.64611,2.82398
25,43,2.68887,2.86521
26,43,2.73244,2.90677
27,43,2.77677,2.94865
28,43,2.82179,2.99083
29,43,2.86746,3.0333
30,43,2.91372,3.07605
31,43,2.96052,3.11906
32,43,3.00781,3.1623
33,43,3.05553,3.20577
34,43,3.10365,3.24945
35,43,3.1521,3.29332
36,43,3.20086,3.33735
37,43,3.24987,3.38153
38,43,3.2991,3.42584
39,43,3.3485,3.47026
40,43,3.39803,3.51476
41,43,3.44766,3.55933
42,43,3.49735,3.60393
43,43,3.54706,3.64855
44,43,3.59676,3.69316
45,43,3.64643,3.73773
46,43,3.69601,3.78225
47,43,3.74549,3.82668
48,43,3.79483,3.871
49,43,3.844,3.91519
50,43,3.89297,3.9592
51,43,3.94172,4.00303
52,43,3.9902,4.04663
53,43,4.03841,4.08998
54,43,4.08629,4.13305
55,43,4.13384,4.17582
56,43,4.18102,4.21824
57,43,4.2278,4.2603
58,43,4.27416,4.30196
59,43,4.32006,4.3432
60,43,4.36549,4.38398
61,43,4.41042,4.42427
62,43,4.45481,4.46404
63,43,4.49865,4.50326
1,44,2.00685,2.02005
2,44,2.02556,2.05186
3,44,2.04495,2.08414
4,44,2.06513,2.11691
5,44,2.08619,2.15017
6,44,2.1082,2.1839
7,44,2.13124,2.21811
8,44,2.15537,2.2528
9,44,2.18064,2.28796
10,44,2.2071,2.32359
11,44,2.23478,2.35969
12,44,2.26369,2.39625
13,44,2.29384,2.43326
14,44,2.32524,2.47072
15,44,2.35787,2.50863
16,44,2.39172,2.54697
17,44,2.42676,2.58574
18,44,2.46296,2.62494
19,44,2.50028,2.66455
20,44,2.53869,2.70456
21,44,2.57814,2.74497
22,44,2.61859,2.78576
23,44,2.65998,2.82692
24,44,2.70226,2.86845
25,44,2.74539,2.91033
26,44,2.78931,2.95254
27,44,2.83397,2.99508
28,44,2.87932,3.03793
29,44,2.92531,3.08107
30,44,2.97188,3.12449
31,44,3.01898,3.16817
32,44,3.06657,3.2121
33,44,3.11461,3.25626
34,44,3.16304,3.30062
35,44,3.21181,3.34518
36,44,3.26089,3.38991
37,44,3.31024,3.43479
38,44,3.3598,3.47979
39,44,3.40955,3.52491
40,44,3.45944,3.57011
41,44,3.50944,3.61538
42,44,3.5595,3.66068
43,44,3.6096,3.70601
44,44,3.6597,3.75132
45,44,3.70976,3.7966
46,44,3.75976,3.84181
47,44,3.80965,3.88694
48,44,3.85942,3.93196
49,44,3.90902,3.97684
50,44,3.95842,4.02155
51,44,4.0076,4.06606
52,44,4.05653,4.11035
53,44,4.10518,4.15439
54,44,4.15351,4.19814
55,44,4.2015,4.24157
56,44,4.24912,4.28467
57,44,4.29635,4.32739
58,44,4.34314,4.36971
59,44,4.38949,4.41159
60,44,4.43535,4.45301
61,44,4.4807,4.49394
62,44,4.52552,4.53434
63,44,4.56977,4.57418
1,45,2.03979,2.05187
2,45,2.0601,2.08417
3,45,2.08109,2.11696
4,45,2.10283,2.15025
5,45,2.12541,2.18403
6,45,2.1489,2.21829
7,45,2.17336,2.25304
8,45,2.19885,2.28828
9,45,2.22541,2.32399
10,45,2.25309,2.36018
11,45,2.28191,2.39685
12,45,2.31189,2.43398
13,45,2.34305,2.47158
14,45,2.37537,2.50963
15,45,2.40886,2.54813
16,45,2.44351,2.58708
17,45,2.47928,2.62646
18,45,2.51616,2.66627
19,45,2.55411,2.70651
20,45,2.5931,2.74715
21,45,2.63309,2.78819
22,45,2.67404,2.82963
23,45,2.7159,2.87144
24,45,2.75862,2.91362
25,45,2.80217,2.95616
26,45,2.84649,2.99904
27,45,2.89153,3.04225
28,45,2.93725,3.08577
29,45,2.98359,3.12959
30,45,3.03052,3.17369
31,45,3.07797,3.21807
32,45,3.12591,3.26269
33,45,3.17429,3.30754
34,45,3.22307,3.3526
35,45,3.2722,3.39786
36,45,3.32164,3.44329
37,45,3.37135,3.48888
38,45,3.42128,3.53459
39,45,3.47141,3.58042
40,45,3.52168,3.62633
41,45,3.57207,3.67231
42,45,3.62254,3.71833
43,45,3.67304,3.76437
44,45,3.72355,3.81039
45,45,3.77403,3.85638
46,45,3.82446,3.90231
47,45,3.87478,3.94815
48,45,3.92498,3.99388
49,45,3.97503,4.03947
50,45,4.02488,4.08488
51,45,4.07451,4.13009
52,45,4.12389,4.17508
53,45,4.17299,4.21981
54,45,4.22178,4.26425
55,45,4.27022,4.30837
56,45,4.3183,4.35214
57,45,4.36597,4.39554
58,45,4.41322,4.43852
59,45,4.46001,4.48107
60,45,4.50631,4.52314
61,45,4.5521,4.56471
62,45,4.59734,4.60574
63,45,4.64201,4.64621
1,46,2.07313,2.08418
2,46,2.09498,2.11699
3,46,2.11748,2.1503
4,46,2.14071,2.18411
5,46,2.16475,2.21842
6,46,2.18966,2.25323
7,46,2.21548,2.28852
8,46,2.24229,2.32431
9,46,2.27011,2.36059
10,46,2.29898,2.39735
11,46,2.32894,2.43459
12,46,2.35998,2.47231
13,46,2.39214,2.5105
14,46,2.4254,2.54915
15,46,2.45977,2.58826
16,46,2.49523,2.62782
17,46,2.53177,2.66782
18,46,2.56936,2.70826
19,46,2.60798,2.74913
20,46,2.64759,2.79041
21,46,2.68816,2.8321
22,46,2.72965,2.87419
23,46,2.77202,2.91666
24,46,2.81523,2.95951
25,46,2.85924,3.00271
26,46,2.904,3.04627
27,46,2.94947,3.09016
28,46,2.9956,3.13436
29,46,3.04235,3.17887
30,46,3.08967,3.22367
31,46,3.13751,3.26874
32,46,3.18584,3.31407
33,46,3.2346,3.35962
34,46,3.28377,3.4054
35,46,3.33328,3.45137
36,46,3.38311,3.49751
37,46,3.43322,3.54382
38,46,3.48355,3.59025
39,46,3.53408,3.6368
40,46,3.58476,3.68344
41,46,3.63557,3.73014
42,46,3.68645,3.77689
43,46,3.73738,3.82365
44,46,3.78833,3.8704
45,46,3.83925,3.91711
46,46,3.89011,3.96377
47,46,3.94089,4.01033
48,46,3.99154,4.05678
49,46,4.04204,4.10308
50,46,4.09235,4.14921
51,46,4.14245,4.19513
52,46,4.19229,4.24083
53,46,4.24186,4.28626
54,46,4.29111,4.3314
55,46,4.34002,4.37622
56,46,4.38856,4.42068
57,46,4.43669,4.46476
58,46,4.4844,4.50842
59,46,4.53164,4.55163
60,46,4.57839,4.59437
61,46,4.62461,4.63659
62,46,4.67029,4.67827
63,46,4.71539,4.71938
1,47,2.1069,2.117
2,47,2.13021,2.15033
3,47,2.15416,2.18416
4,47,2.17882,2.21851
5,47,2.20426,2.25336
6,47,2.23053,2.28871
7,47,2.25769,2.32456
8,47,2.28577,2.36092
9,47,2.31482,2.39776
10,47,2.34486,2.43511
11,47,2.37593,2.47293
12,47,2.40804,2.51124
13,47,2.4412,2.55003
14,47,2.47541,2.58929
15,47,2.51067,2.62902
16,47,2.54697,2.6692
17,47,2.58429,2.70983
18,47,2.62262,2.75091
19,47,2.66193,2.79242
20,47,2.7022,2.83435
21,47,2.74339,2.8767
22,47,2.78546,2.91945
23,47,2.82839,2.96259
24,47,2.87213,3.00611
25,47,2.91664,3.05
26,47,2.96188,3.09424
27,47,3.00782,3.13882
28,47,3.0544,3.18372
29,47,3.10159,3.22893
30,47,3.14935,3.27444
31,47,3.19762,3.32022
32,47,3.24637,3.36625
33,47,3.29556,3.41253
34,47,3.34514,3.45902
35,47,3.39507,3.50572
36,47,3.44532,3.55259
37,47,3.49585,3.59962
38,47,3.54661,3.64679
39,47,3.59757,3.69407
40,47,3.64869,3.74145
41,47,3.69993,3.78888
42,47,3.75126,3.83636
43,47,3.80264,3.88386
44,47,3.85404,3.93135
45,47,3.90541,3.9788
46,47,3.95674,4.02619
47,47,4.00798,4.07348
48,47,4.0591,4.12066
49,47,4.11007,4.16769
50,47,4.16086,4.21455
51,47,4.21143,4.2612
52,47,4.26175,4.30761
53,47,4.31179,4.35376
54,47,4.36152,4.39961
55,47,4.4109,4.44513
56,47,4.45991,4.4903
57,47,4.50852,4.53507
58,47,4.55669,4.57942
59,47,4.60439,4.62331
60,47,4.65159,4.66672
61,47,4.69827,4.70961
62,47,4.74439,4.75194
63,47,4.78992,4.79369
1,48,2.14112,2.15034
2,48,2.16583,2.18419
3,48,2.19117,2.21856
4,48,2.2172,2.25344
5,48,2.24399,2.28884
6,48,2.27159,2.32475
7,48,2.30003,2.36117
8,48,2.32935,2.3981
9,48,2.3596,2.43552
10,48,2.3908,2.47345
11,48,2.42298,2.51188
12,48,2.45614,2.55079
13,48,2.4903,2.59019
14,48,2.52546,2.63007
15,48,2.56163,2.67042
16,48,2.59878,2.71123
17,48,2.63691,2.75251
18,48,2.67601,2.79423
19,48,2.71604,2.83639
20,48,2.757,2.87899
21,48,2.79883,2.922
22,48,2.84153,2.96542
23,48,2.88504,3.00925
24,48,2.92935,3.05345
25,48,2.9744,3.09803
26,48,3.02017,3.14297
27,48,3.06661,3.18825
28,48,3.11369,3.23386
29,48,3.16136,3.27978
30,48,3.20958,3.326
31,48,3.25832,3.3725
32,48,3.30752,3.41926
33,48,3.35717,3.46627
34,48,3.4072,3.5135
35,48,3.45759,3.56093
36,48,3.50829,3.60854
37,48,3.55926,3.65631
38,48,3.61048,3.70422
39,48,3.66189,3.75225
40,48,3.71347,3.80037
41,48,3.76517,3.84855
42,48,3.81697,3.89678
43,48,3.86882,3.94502
44,48,3.92068,3.99326
45,48,3.97254,4.04145
46,48,4.02435,4.08959
47,48,4.07607,4.13763
48,48,4.12767,4.18555
49,48,4.17913,4.23332
50,48,4.2304,4.28092
51,48,4.28146,4.3283
52,48,4.33227,4.37545
53,48,4.3828,4.42232
54,48,4.43301,4.46889
55,48,4.48288,4.51513
56,48,4.53238,4.56101
57,48,4.58146,4.60648
58,48,4.63011,4.65153
59,48,4.67828,4.69612
60,48,4.72595,4.74021
61,48,4.77308,4.78377
62,48,4.81965,4.82677
63,48,4.86562,4.86918
1,49,2.17581,2.1842
2,49,2.20185,2.21859
3,49,2.22853,2.2535
4,49,2.2559,2.28893
5,49,2.284,2.32488
6,49,2.31287,2.36136
7,49,2.34256,2.39835
8,49,2.3731,2.43586
9,49,2.40453,2.47388
10,49,2.43687,2.5124
11,49,2.47014,2.55143
12,49,2.50435,2.59096
13,49,2.53951,2.63098
14,49,2.57563,2.67149
15,49,2.61271,2.71247
16,49,2.65073,2.75393
17,49,2.68969,2.79585
18,49,2.72958,2.83823
19,49,2.77036,2.88106
20,49,2.81203,2.92432
21,49,2.85455,2.96802
22,49,2.89789,3.01212
23,49,2.94203,3.05663
24,49,2.98694,3.10154
25,49,3.03257,3.14682
26,49,3.0789,3.19246
27,49,3.12588,3.23846
28,49,3.17348,3.28479
29,49,3.22167,3.33143
30,49,3.27039,3.37838
31,49,3.31963,3.42561
32,49,3.36932,3.47311
33,49,3.41945,3.52085
34,49,3.46997,3.56883
35,49,3.52083,3.617
36,49,3.57201,3.66536
37,49,3.62347,3.71389
38,49,3.67516,3.76255
39,49,3.72706,3.81134
40,49,3.77912,3.86021
41,49,3.83131,3.90916
42,49,3.88359,3.95814
43,49,3.93593,4.00715
44,49,3.98829,4.05614
45,49,4.04064,4.1051
46,49,4.09294,4.15399
47,49,4.14516,4.20279
48,49,4.19727,4.25147
49,49,4.24922,4.29999
50,49,4.301,4.34833
51,49,4.35256,4.39646
52,49,4.40387,4.44435
53,49,4.4549,4.49196
54,49,4.50561,4.53927
55,49,4.55598,4.58624
56,49,4.60597,4.63283
57,49,4.65554,4.67903
58,49,4.70467,4.72478
59,49,4.75333,4.77007
60,49,4.80147,4.81486
61,49,4.84907,4.85911
62,49,4.8961,4.90279
63,49,4.94252,4.94586
1,50,2.21097,2.2186
2,50,2.23832,2.25352
3,50,2.26629,2.28898
4,50,2.29494,2.32498
5,50,2.32431,2.3615
6,50,2.35443,2.39855
7,50,2.38534,2.43612
8,50,2.41708,2.47422
9,50,2.44966,2.51284
10,50,2.48312,2.55197
11,50,2.51747,2.59161
12,50,2.55273,2.63176
13,50,2.5889,2.67241
14,50,2.62598,2.71355
15,50,2.66398,2.75519
16,50,2.70289,2.7973
17,50,2.74269,2.83988
18,50,2.78338,2.88293
19,50,2.82494,2.92643
20,50,2.86735,2.97038
21,50,2.91058,3.01476
22,50,2.9546,3.05956
23,50,2.9994,3.10477
24,50,3.04493,3.15038
25,50,3.09118,3.19637
26,50,3.13809,3.24274
27,50,3.18565,3.28945
28,50,3.23381,3.33651
29,50,3.28255,3.38389
30,50,3.33181,3.43158
31,50,3.38157,3.47956
32,50,3.43179,3.5278
33,50,3.48243,3.5763
34,50,3.53346,3.62503
35,50,3.58484,3.67396
36,50,3.63652,3.72309
37,50,3.68848,3.77237
38,50,3.74068,3.82181
39,50,3.79308,3.87136
40,50,3.84565,3.921
41,50,3.89834,3.97072
42,50,3.95113,4.02048
43,50,4.00398,4.07025
44,50,4.05686,4.12002
45,50,4.10972,4.16974
46,50,4.16254,4.21941
47,50,4.21527,4.26897
48,50,4.26789,4.31842
49,50,4.32037,4.36771
50,50,4.37266,4.41681
51,50,4.42474,4.4657
52,50,4.47656,4.51434
53,50,4.52811,4.5627
54,50,4.57933,4.61075
55,50,4.63021,4.65846
56,50,4.6807,4.70579
57,50,4.73078,4.75271
58,50,4.7804,4.79919
59,50,4.82954,4.84519
60,50,4.87817,4.89068
61,50,4.92625,4.93562
62,50,4.97374,4.97999
63,50,5.02062,5.02375
1,51,2.24662,2.25353
2,51,2.27523,2.28901
3,51,2.30447,2.32503
4,51,2.33436,2.36159
5,51,2.36497,2.39868
6,51,2.39631,2.43632
7,51,2.42842,2.47448
8,51,2.46132,2.51318
9,51,2.49505,2.55241
10,51,2.52962,2.59216
11,51,2.56505,2.63242
12,51,2.60134,2.67321
13,51,2.63851,2.7145
14,51,2.67657,2.75629
15,51,2.7155,2.79857
16,51,2.7553,2.84135
17,51,2.79596,2.8846
18,51,2.83748,2.92833
19,51,2.87983,2.97251
20,51,2.923,3.01715
21,51,2.96696,3.06223
22,51,3.0117,3.10774
23,51,3.05718,3.15366
24,51,3.10338,3.19999
25,51,3.15026,3.24671
26,51,3.1978,3.2938
27,51,3.24596,3.34126
28,51,3.29471,3.38906
29,51,3.34403,3.43718
30,51,3.39386,3.48562
31,51,3.44418,3.53435
32,51,3.49495,3.58336
33,51,3.54614,3.63262
34,51,3.5977,3.68211
35,51,3.64961,3.73182
36,51,3.70183,3.78172
37,51,3.75432,3.83178
38,51,3.80705,3.88199
39,51,3.85998,3.93232
40,51,3.91308,3.98275
41,51,3.9663,4.03325
42,51,4.01962,4.08379
43,51,4.073,4.13435
44,51,4.1264,4.1849
45,51,4.1798,4.23541
46,51,4.23315,4.28585
47,51,4.28642,4.3362
48,51,4.33957,4.38642
49,51,4.39258,4.43649
50,51,4.4454,4.48636
51,51,4.49801,4.53602
52,51,4.55036,4.58543
53,51,4.60243,4.63455
54,51,4.65418,4.68336
55,51,4.70558,4.73182
56,51,4.75659,4.77989
57,51,4.80717,4.82755
58,51,4.85731,4.87476
59,51,4.90695,4.92149
60,51,4.95607,4.9677
61,51,5.00463,5.01335
62,51,5.05261,5.05842
63,51,5.09996,5.10286
1,52,2.28278,2.28902
2,52,2.31262,2.32506
3,52,2.34308,2.36164
4,52,2.3742,2.39878
5,52,2.40601,2.43646
6,52,2.43854,2.47468
7,52,2.47183,2.51345
8,52,2.50589,2.55276
9,52,2.54074,2.5926
10,52,2.57641,2.63298
11,52,2.6129,2.67388
12,52,2.65024,2.7153
13,52,2.68842,2.75724
14,52,2.72744,2.79969
15,52,2.76731,2.84265
16,52,2.80802,2.88609
17,52,2.84956,2.93003
18,52,2.89192,2.97444
19,52,2.93508,3.01933
20,52,2.97904,3.06467
21,52,3.02376,3.11045
22,52,3.06923,3.15668
23,52,3.11542,3.20332
24,52,3.1623,3.25038
25,52,3.20985,3.29784
26,52,3.25804,3.34567
27,52,3.30684,3.39387
28,52,3.35621,3.44243
29,52,3.40613,3.49131
30,52,3.45656,3.54051
31,52,3.50747,3.59001
32,52,3.55882,3.63979
33,52,3.61058,3.68982
34,52,3.66271,3.7401
35,52,3.71518,3.79059
36,52,3.76796,3.84127
37,52,3.82101,3.89212
38,52,3.87429,3.94312
39,52,3.92777,3.99425
40,52,3.98142,4.04547
41,52,4.03519,4.09676
42,52,4.08906,4.1481
43,52,4.14299,4.19945
44,52,4.19695,4.2508
45,52,4.25089,4.30211
46,52,4.30479,4.35334
47,52,4.35861,4.40449
48,52,4.41231,4.4555
49,52,4.46586,4.50635
50,52,4.51923,4.55701
51,52,4.57238,4.60745
52,52,4.62528,4.65764
53,52,4.67789,4.70754
54,52,4.73018,4.75711
55,52,4.78211,4.80633
56,52,4.83365,4.85517
57,52,4.88476,4.90358
58,52,4.93541,4.95153
59,52,4.98556,4.99899
60,52,5.03519,5.04593
61,52,5.08425,5.0923
62,52,5.13271,5.13807
63,52,5.18054,5.18322
1,53,2.31947,2.32507
2,53,2.3505,2.36167
3,53,2.38216,2.39883
4,53,2.41448,2.43655
5,53,2.44747,2.47483
6,53,2.48118,2.51365
7,53,2.51562,2.55303
8,53,2.55081,2.59296
9,53,2.58678,2.63343
10,53,2.62354,2.67444
11,53,2.6611,2.71599
12,53,2.69947,2.75806
13,53,2.73865,2.80066
14,53,2.77865,2.84378
15,53,2.81947,2.88741
16,53,2.8611,2.93154
17,53,2.90352,2.97617
18,53,2.94674,3.02128
19,53,2.99074,3.06687
20,53,3.0355,3.11293
21,53,3.081,3.15944
22,53,3.12723,3.20639
23,53,3.17415,3.25377
24,53,3.22175,3.30157
25,53,3.27,3.34977
26,53,3.31886,3.39836
27,53,3.36832,3.44732
28,53,3.41834,3.49664
29,53,3.4689,3.54629
30,53,3.51995,3.59627
31,53,3.57147,3.64655
32,53,3.62343,3.69711
33,53,3.67578,3.74793
34,53,3.72851,3.79899
35,53,3.78157,3.85028
36,53,3.83493,3.90176
37,53,3.88856,3.95341
38,53,3.94242,4.00522
39,53,3.99647,4.05715
40,53,4.05069,4.10917
41,53,4.10504,4.16128
42,53,4.15948,4.21342
43,53,4.21398,4.26559
44,53,4.2685,4.31774
45,53,4.32301,4.36985
46,53,4.37747,4.4219
47,53,4.43186,4.47385
48,53,4.48613,4.52566
49,53,4.54024,4.57732
50,53,4.59417,4.62878
51,53,4.64789,4.68001
52,53,4.70134,4.73099
53,53,4.7545,4.78167
54,53,4.80734,4.83203
55,53,4.85982,4.88202
56,53,4.91189,4.93162
57,53,4.96354,4.9808
58,53,5.01472,5.02951
59,53,5.0654,5.07771
60,53,5.11554,5.12539
61,53,5.16511,5.17249
62,53,5.21407,5.21899
63,53,5.26238,5.26484
1,54,2.35669,2.36168
2,54,2.3889,2.39886
3,54,2.42173,2.43661
4,54,2.45522,2.47492
5,54,2.48938,2.5138
6,54,2.52425,2.55324
7,54,2.55983,2.59324
8,54,2.59615,2.63379
9,54,2.63322,2.6749
10,54,2.67106,2.71656
11,54,2.70968,2.75876
12,54,2.74908,2.8015
13,54,2.78928,2.84477
14,54,2.83026,2.88856
15,54,2.87203,2.93288
16,54,2.91458,2.97771
17,54,2.95791,3.02304
18,54,3.00201,3.06886
19,54,3.04685,3.11517
20,54,3.09244,3.16195
21,54,3.13874,3.20919
22,54,3.18574,3.25688
23,54,3.23342,3.30501
24,54,3.28176,3.35356
25,54,3.33072,3.40252
26,54,3.38029,3.45187
27,54,3.43044,3.50161
28,54,3.48114,3.5517
29,54,3.53235,3.60214
30,54,3.58405,3.6529
31,54,3.63621,3.70397
32,54,3.6888,3.75533
33,54,3.74178,3.80695
34,54,3.79512,3.85882
35,54,3.84879,3.91091
36,54,3.90276,3.9632
37,54,3.95699,4.01567
38,54,4.01145,4.06829
39,54,4.0661,4.12104
40,54,4.12091,4.17389
41,54,4.17585,4.22681
42,54,4.23088,4.27977
43,54,4.28597,4.33276
44,54,4.34107,4.38573
45,54,4.39617,4.43867
46,54,4.45122,4.49153
47,54,4.50619,4.5443
48,54,4.56104,4.59693
49,54,4.61573,4.6494
50,54,4.67024,4.70167
51,54,4.72453,4.75371
52,54,4.77855,4.80549
53,54,4.83228,4.85697
54,54,4.88568,4.90812
55,54,4.93872,4.9589
56,54,4.99135,5.00929
57,54,5.04354,5.05923
58,54,5.09527,5.10871
59,54,5.14648,5.15768
60,54,5.19714,5.2061
61,54,5.24723,5.25395
62,54,5.2967,5.30117
63,54,5.34551,5.34775
1,55,2.39445,2.39887
2,55,2.42782,2.43664
3,55,2.46182,2.47498
4,55,2.49646,2.5139
5,55,2.53177,2.55339
6,55,2.56777,2.59345
7,55,2.60448,2.63407
8,55,2.64192,2.67527
9,55,2.68009,2.71702
10,55,2.71901,2.75934
11,55,2.75869,2.8022
12,55,2.79913,2.84561
13,55,2.84033,2.88957
14,55,2.8823,2.93405
15,55,2.92503,2.97907
16,55,2.96853,3.0246
17,55,3.01277,3.07064
18,55,3.05775,3.11719
19,55,3.10346,3.16423
20,55,3.14989,3.21174
21,55,3.19701,3.25973
22,55,3.24481,3.30817
23,55,3.29327,3.35706
24,55,3.34237,3.40637
25,55,3.39207,3.4561
26,55,3.44237,3.50623
27,55,3.49323,3.55675
28,55,3.54462,3.60763
29,55,3.59652,3.65886
30,55,3.64889,3.71043
31,55,3.70172,3.7623
32,55,3.75496,3.81447
33,55,3.80858,3.8669
34,55,3.86257,3.91959
35,55,3.91687,3.9725
36,55,3.97147,4.02561
37,55,4.02632,4.07891
38,55,4.0814,4.13236
39,55,4.13667,4.18593
40,55,4.1921,4.23961
41,55,4.24765,4.29337
42,55,4.30329,4.34717
43,55,4.35898,4.40099
44,55,4.4147,4.4548
45,55,4.4704,4.50857
46,55,4.52605,4.56227
47,55,4.58161,4.61586
48,55,4.63706,4.66932
49,55,4.69235,4.72262
50,55,4.74745,4.77571
51,55,4.80232,4.82857
52,55,4.85693,4.88116
53,55,4.91125,4.93346
54,55,4.96522,4.98541
55,55,5.01883,5.03699
56,55,5.07203,5.08817
57,55,5.12478,5.1389
58,55,5.17706,5.18916
59,55,5.22882,5.2389
60,55,5.28002,5.28808
61,55,5.33064,5.33668
62,55,5.38063,5.38466
63,55,5.42995,5.43197
1,56,2.43278,2.43665
2,56,2.46729,2.47501
3,56,2.50243,2.51396
4,56,2.53821,2.55349
5,56,2.57466,2.5936
6,56,2.6118,2.63429
7,56,2.64963,2.67556
8,56,2.68817,2.7174
9,56,2.72743,2.75981
10,56,2.76743,2.80279
11,56,2.80816,2.84633
12,56,2.84964,2.89042
13,56,2.89186,2.93507
14,56,2.93482,2.98026
15,56,2.97853,3.02598
16,56,3.02297,3.07223
17,56,3.06813,3.119
18,56,3.11402,3.16628
19,56,3.16061,3.21405
20,56,3.20789,3.26232
21,56,3.25585,3.31106
22,56,3.30447,3.36027
23,56,3.35373,3.40992
24,56,3.40361,3.46001
25,56,3.45408,3.51053
26,56,3.50512,3.56145
27,56,3.55671,3.61276
28,56,3.60882,3.66444
29,56,3.66143,3.71648
30,56,3.7145,3.76886
31,56,3.76801,3.82155
32,56,3.82193,3.87453
33,56,3.87623,3.9278
34,56,3.93088,3.98131
35,56,3.98584,4.03506
36,56,4.04108,4.08901
37,56,4.09658,4.14314
38,56,4.1523,4.19743
39,56,4.20821,4.25185
40,56,4.26427,4.30638
41,56,4.32045,4.36098
42,56,4.37672,4.41563
43,56,4.43304,4.4703
44,56,4.48938,4.52495
45,56,4.5457,4.57957
46,56,4.60197,4.63411
47,56,4.65815,4.68855
48,56,4.71421,4.74285
49,56,4.77011,4.79699
50,56,4.82582,4.85092
51,56,4.8813,4.90461
52,56,4.93651,4.95803
53,56,4.99141,5.01115
54,56,5.04598,5.06392
55,56,5.10017,5.11632
56,56,5.15395,5.1683
57,56,5.20728,5.21983
58,56,5.26012,5.27088
59,56,5.31244,5.3214
60,56,5.36419,5.37136
61,56,5.41535,5.42072
62,56,5.46587,5.46945
63,56,5.51572,5.51751
1,57,2.47168,2.47502
2,57,2.50732,2.51399
3,57,2.54359,2.55355
4,57,2.58051,2.5937
5,57,2.61809,2.63444
6,57,2.65634,2.67577
7,57,2.69529,2.71769
8,57,2.73493,2.76019
9,57,2.77529,2.80327
10,57,2.81635,2.84693
11,57,2.85815,2.89115
12,57,2.90066,2.93594
13,57,2.9439,2.98129
14,57,2.98786,3.02719
15,57,3.03255,3.07363
16,57,3.07795,3.12061
17,57,3.12405,3.16812
18,57,3.17085,3.21614
19,57,3.21834,3.26467
20,57,3.2665,3.31369
21,57,3.31531,3.3632
22,57,3.36477,3.41318
23,57,3.41484,3.46362
24,57,3.46552,3.5145
25,57,3.51677,3.56581
26,57,3.56859,3.61753
27,57,3.62093,3.66965
28,57,3.67379,3.72215
29,57,3.72712,3.77501
30,57,3.78091,3.82821
31,57,3.83513,3.88173
32,57,3.88975,3.93555
33,57,3.94474,3.98965
34,57,4.00007,4.04401
35,57,4.05571,4.0986
36,57,4.11163,4.1534
37,57,4.16779,4.20839
38,57,4.22417,4.26353
39,57,4.28074,4.31881
40,57,4.33745,4.37419
41,57,4.39428,4.42965
42,57,4.4512,4.48516
43,57,4.50816,4.54069
44,57,4.56514,4.59621
45,57,4.6221,4.65169
46,57,4.679,4.70709
47,57,4.73582,4.76238
48,57,4.79251,4.81754
49,57,4.84903,4.87253
50,57,4.90536,4.92731
51,57,4.96146,4.98185
52,57,5.01728,5.03611
53,57,5.0728,5.09006
54,57,5.12797,5.14367
55,57,5.18276,5.19689
56,57,5.23713,5.24969
57,57,5.29105,5.30203
58,57,5.34447,5.35388
59,57,5.39736,5.4052
60,57,5.44967,5.45595
61,57,5.50138,5.50609
62,57,5.55245,5.55558
63,57,5.60283,5.6044
1,58,2.51117,2.514
2,58,2.54793,2.55358
3,58,2.58532,2.59376
4,58,2.62336,2.63454
5,58,2.66206,2.67593
6,58,2.70144,2.71791
7,58,2.74149,2.76049
8,58,2.78224,2.80366
9,58,2.82368,2.84742
10,58,2.86583,2.89176
11,58,2.90868,2.93668
12,58,2.95223,2.98218
13,58,2.9965,3.02824
14,58,3.04147,3.07486
15,58,3.08714,3.12204
16,58,3.13351,3.16975
17,58,3.18056,3.21801
18,58,3.22829,3.26679
19,58,3.27669,3.31608
20,58,3.32574,3.36588
21,58,3.37542,3.41617
22,58,3.42573,3.46693
23,58,3.47664,3.51816
24,58,3.52814,3.56985
25,58,3.5802,3.62196
26,58,3.6328,3.6745
27,58,3.68592,3.72744
28,58,3.73954,3.78076
29,58,3.79362,3.83445
30,58,3.84815,3.88849
31,58,3.9031,3.94286
32,58,3.95844,3.99753
33,58,4.01414,4.05248
34,58,4.07017,4.10769
35,58,4.12651,4.16314
36,58,4.18312,4.21881
37,58,4.23997,4.27466
38,58,4.29703,4.33067
39,58,4.35427,4.38682
40,58,4.41166,4.44308
41,58,4.46916,4.49941
42,58,4.52674,4.5558
43,58,4.58436,4.6122
44,58,4.642,4.66859
45,58,4.69962,4.72494
46,58,4.75717,4.78121
47,58,4.81464,4.83738
48,58,4.87197,4.89341
49,58,4.92914,4.94926
50,58,4.98611,5.0049
51,58,5.04284,5.0603
52,58,5.09929,5.11542
53,58,5.15543,5.17022
54,58,5.21122,5.22467
55,58,5.26662,5.27873
56,58,5.3216,5.33236
57,58,5.37611,5.38553
58,58,5.43012,5.43819
59,58,5.4836,5.49032
60,58,5.53649,5.54187
61,58,5.58876,5.5928
62,58,5.64038,5.64307
63,58,5.69131,5.69265
1,59,2.55125,2.55359
2,59,2.58913,2.59379
3,59,2.62764,2.6346
4,59,2.6668,2.67603
5,59,2.70662,2.71807
6,59,2.74711,2.76071
7,59,2.78827,2.80396
8,59,2.83012,2.84781
9,59,2.87265,2.89226
10,59,2.91587,2.9373
11,59,2.95979,2.98293
12,59,3.0044,3.02914
13,59,3.04969,3.07593
14,59,3.09568,3.12328
15,59,3.14235,3.1712
16,59,3.18969,3.21967
17,59,3.23771,3.26868
18,59,3.28638,3.31823
19,59,3.3357,3.3683
20,59,3.38565,3.41888
21,59,3.43623,3.46996
22,59,3.4874,3.52153
23,59,3.53917,3.57357
24,59,3.5915,3.62606
25,59,3.64438,3.679
26,59,3.69779,3.73237
27,59,3.75171,3.78614
28,59,3.8061,3.8403
29,59,3.86096,3.89484
30,59,3.91625,3.94973
31,59,3.97195,4.00495
32,59,4.02803,4.06048
33,59,4.08446,4.1163
34,59,4.14121,4.17238
35,59,4.19827,4.2287
36,59,4.25559,4.28524
37,59,4.31314,4.34198
38,59,4.3709,4.39887
39,59,4.42884,4.4559
40,59,4.48692,4.51305
41,59,4.5451,4.57027
42,59,4.60337,4.62754
43,59,4.66167,4.68483
44,59,4.71998,4.74211
45,59,4.77827,4.79935
46,59,4.8365,4.85651
47,59,4.89462,4.91356
48,59,4.95262,4.97047
49,59,5.01044,5.0272
50,59,5.06806,5.08372
51,59,5.12544,5.13999
52,59,5.18254,5.19597
53,59,5.23932,5.25164
54,59,5.29574,5.30694
55,59,5.35177,5.36185
56,59,5.40737,5.41633
57,59,5.46249,5.47034
58,59,5.51711,5.52383
59,59,5.57118,5.57678
60,59,5.62466,5.62914
61,59,5.67751,5.68087
62,59,5.7297,5.73194
63,59,5.78118,5.7823
1,60,2.59195,2.5938
2,60,2.63093,2.63464
3,60,2.67056,2.67609
4,60,2.71085,2.71817
5,60,2.75178,2.76087
6,60,2.79339,2.80418
7,60,2.83566,2.84811
8,60,2.87861,2.89265
9,60,2.92223,2.9378
10,60,2.96654,2.98355
11,60,3.01152,3.0299
12,60,3.05718,3.07684
13,60,3.10352,3.12437
14,60,3.15053,3.17247
15,60,3.1982,3.22114
16,60,3.24654,3.27037
17,60,3.29552,3.32016
18,60,3.34515,3.37049
19,60,3.39541,3.42134
20,60,3.44628,3.47272
21,60,3.49776,3.52461
22,60,3.54982,3.57698
23,60,3.60245,3.62984
24,60,3.65564,3.68317
25,60,3.70936,3.73694
26,60,3.7636,3.79114
27,60,3.81833,3.84576
28,60,3.87352,3.90078
29,60,3.92917,3.95617
30,60,3.98524,4.01193
31,60,4.0417,4.06802
32,60,4.09854,4.12442
33,60,4.15572,4.18112
34,60,4.21322,4.23808
35,60,4.27101,4.2953
36,60,4.32906,4.35273
37,60,4.38734,4.41035
38,60,4.44582,4.46814
39,60,4.50446,4.52607
40,60,4.56325,4.58412
41,60,4.62214,4.64224
42,60,4.6811,4.70041
43,60,4.7401,4.75861
44,60,4.79911,4.81679
45,60,4.85808,4.87492
46,60,4.91699,4.93299
47,60,4.9758,4.99094
48,60,5.03447,5.04874
49,60,5.09297,5.10636
50,60,5.15126,5.16377
51,60,5.2093,5.22093
52,60,5.26705,5.2778
53,60,5.32449,5.33434
54,60,5.38156,5.39051
55,60,5.43823,5.44629
56,60,5.49446,5.50162
57,60,5.55021,5.55648
58,60,5.60544,5.61082
59,60,5.66012,5.6646
60,60,5.7142,5.71778
61,60,5.76764,5.77033
62,60,5.82041,5.8222
63,60,5.87246,5.87336
1,61,2.63326,2.63465
2,61,2.67337,2.67613
3,61,2.71411,2.71824
4,61,2.75551,2.76098
5,61,2.79757,2.80435
6,61,2.84029,2.84834
7,61,2.88368,2.89297
8,61,2.92773,2.93821
9,61,2.97246,2.98407
10,61,3.01785,3.03054
11,61,3.0639,3.07762
12,61,3.11063,3.12529
13,61,3.15801,3.17357
14,61,3.20606,3.22243
15,61,3.25475,3.27186
16,61,3.30408,3.32187
17,61,3.35405,3.37244
18,61,3.40465,3.42356
19,61,3.45585,3.47522
20,61,3.50766,3.52741
21,61,3.56005,3.58011
22,61,3.61302,3.63331
23,61,3.66654,3.687
24,61,3.7206,3.74117
25,61,3.77518,3.79579
26,61,3.83025,3.85084
27,61,3.88581,3.90632
28,61,3.94183,3.96221
29,61,3.99828,4.01847
30,61,4.05514,4.0751
31,61,4.11239,4.13208
32,61,4.17,4.18937
33,61,4.22795,4.24696
34,61,4.28621,4.30482
35,61,4.34476,4.36294
36,61,4.40355,4.42127
37,61,4.46257,4.47981
38,61,4.52179,4.53851
39,61,4.58117,4.59735
40,61,4.64068,4.65631
41,61,4.70029,4.71534
42,61,4.75997,4.77443
43,61,4.81968,4.83354
44,61,4.87939,4.89264
45,61,4.93907,4.95169
46,61,4.99868,5.01067
47,61,5.05819,5.06953
48,61,5.11755,5.12825
49,61,5.17674,5.18678
50,61,5.23571,5.24509
51,61,5.29443,5.30315
52,61,5.35286,5.36091
53,61,5.41095,5.41834
54,61,5.46869,5.4754
55,61,5.52601,5.53206
56,61,5.58289,5.58826
57,61,5.63928,5.64398
58,61,5.69514,5.69918
59,61,5.75044,5.7538
60,61,5.80514,5.80782
61,61,5.85918,5.8612
62,61,5.91254,5.91389
63,61,5.96518,5.96585
1,62,2.67522,2.67614
2,62,2.71644,2.71827
3,62,2.75831,2.76104
4,62,2.80083,2.80446
5,62,2.84401,2.84851
6,62,2.88785,2.8932
7,62,2.93236,2.93852
8,62,2.97752,2.98448
9,62,3.02335,3.03106
10,62,3.06983,3.07826
11,62,3.11698,3.12608
12,62,3.16477,3.17451
13,62,3.21321,3.22354
14,62,3.2623,3.27317
15,62,3.31202,3.32339
16,62,3.36237,3.37419
17,62,3.41333,3.42555
18,62,3.46491,3.47748
19,62,3.51708,3.52995
20,62,3.56983,3.58296
21,62,3.62316,3.63649
22,62,3.67704,3.69053
23,62,3.73146,3.74507
24,62,3.7864,3.80008
25,62,3.84185,3.85556
26,62,3.89779,3.91149
27,62,3.95419,3.96784
28,62,4.01104,4.0246
29,62,4.06832,4.08176
30,62,4.12599,4.13928
31,62,4.18405,4.19715
32,62,4.24245,4.25534
33,62,4.30119,4.31384
34,62,4.36023,4.37262
35,62,4.41954,4.43164
36,62,4.4791,4.4909
37,62,4.53888,4.55035
38,62,4.59884,4.60998
39,62,4.65897,4.66975
40,62,4.71922,4.72963
41,62,4.77957,4.7896
42,62,4.83998,4.84962
43,62,4.90042,4.90966
44,62,4.96086,4.96969
45,62,5.02126,5.02967
46,62,5.08159,5.08958
47,62,5.14181,5.14936
48,62,5.20188,5.209
49,62,5.26177,5.26846
50,62,5.32144,5.32769
51,62,5.38085,5.38666
52,62,5.43996,5.44533
53,62,5.49874,5.50367
54,62,5.55715,5.56163
55,62,5.61514,5.61917
56,62,5.67268,5.67627
57,62,5.72973,5.73286
58,62,5.78624,5.78893
59,62,5.84217,5.84441
60,62,5.89749,5.89928
61,62,5.95216,5.9535
62,62,6.00612,6.00702
63,62,6.05935,6.0598
1,63,2.71782,2.71828
2,63,2.76016,2.76107
3,63,2.80316,2.80452
4,63,2.84681,2.84862
5,63,2.89112,2.89337
6,63,2.93609,2.93876
7,63,2.98172,2.9848
8,63,3.02801,3.03148
9,63,3.07495,3.07879
10,63,3.12253,3.12674
11,63,3.17077,3.17531
12,63,3.21964,3.2245
13,63,3.26915,3.27431
14,63,3.31929,3.32472
15,63,3.37005,3.37573
16,63,3.42142,3.42732
17,63,3.4734,3.4795
18,63,3.52597,3.53224
19,63,3.57911,3.58554
20,63,3.63283,3.63938
21,63,3.6871,3.69376
22,63,3.74191,3.74865
23,63,3.79725,3.80404
24,63,3.8531,3.85992
25,63,3.90943,3.91628
26,63,3.96624,3.97308
27,63,4.02351,4.03032
28,63,4.08121,4.08798
29,63,4.13932,4.14603
30,63,4.19783,4.20446
31,63,4.2567,4.26324
32,63,4.31592,4.32236
33,63,4.37545,4.38177
34,63,4.43529,4.44147
35,63,4.49539,4.50143
36,63,4.55572,4.56162
37,63,4.61628,4.62201
38,63,4.67701,4.68257
39,63,4.7379,4.74329
40,63,4.79891,4.80411
41,63,4.86001,4.86502
42,63,4.92117,4.92599
43,63,4.98236,4.98698
44,63,5.04354,5.04795
45,63,5.10467,5.10888
46,63,5.16573,5.16972
47,63,5.22668,5.23046
48,63,5.28747,5.29103
49,63,5.34808,5.35142
50,63,5.40846,5.41159
51,63,5.46858,5.47149
52,63,5.5284,5.53108
53,63,5.58788,5.59034
54,63,5.64697,5.64921
55,63,5.70565,5.70766
56,63,5.76386,5.76565
57,63,5.82157,5.82314
58,63,5.87874,5.88009
59,63,5.93533,5.93645
60,63,5.99129,5.99218
61,63,6.04658,6.04725
62,63,6.10117,6.10161
63,63,6.155,6.15523
