9,1,1.36233,0.000529143
10,1,1.40355,0.000442285
11,1,1.44559,0.000359016
12,1,1.48842,0.000288761
13,1,1.53199,0.000232331
14,1,1.57624,0.000187813
15,1,1.62112,0.000152809
16,1,1.66654,0.00012518
17,1,1.71244,0.00010321
18,1,1.75875,8.55821e-05
19,1,1.80536,7.13011e-05
20,1,1.85221,5.96172e-05
21,1,1.89919,4.99632e-05
22,1,1.9462,4.19061e-05
23,1,1.99314,3.51117e-05
24,1,2.0399,2.93184e-05
25,1,2.08638,2.43182e-05
26,1,2.13244,1.99427e-05
27,1,2.17798,1.6052e-05
28,1,2.22287,1.25271e-05
29,1,2.26698,9.26212e-06
30,1,2.3102,6.15794e-06
31,1,2.35239,3.11219e-06
9,2,1.40611,0.00108731
10,2,1.44853,0.000881301
11,2,1.49181,0.000705349
12,2,1.53594,0.000564034
13,2,1.58084,0.000453091
14,2,1.62645,0.000366453
15,2,1.67272,0.000298584
16,2,1.71956,0.000245037
17,2,1.7669,0.000202405
18,2,1.81465,0.000168132
19,2,1.86274,0.000140304
20,2,1.91106,0.000117483
21,2,1.95952,9.8584e-05
22,2,2.00802,8.27757e-05
23,2,2.05644,6.94159e-05
24,2,2.10469,5.80005e-05
25,2,2.15263,4.81279e-05
26,2,2.20015,3.94716e-05
27,2,2.24713,3.17608e-05
28,2,2.29344,2.47644e-05
29,2,2.33896,1.82781e-05
30,2,2.38354,1.21136e-05
31,2,2.42706,6.08586e-06
9,3,1.45127,0.00164722
10,3,1.49489,0.00129059
11,3,1.53946,0.00101738
12,3,1.58492,0.000809283
13,3,1.6312,0.000649899
14,3,1.67823,0.000526677
15,3,1.72594,0.00043039
16,3,1.77425,0.000354323
17,3,1.82307,0.000293579
18,3,1.87233,0.000244563
19,3,1.92193,0.000204607
20,3,1.97178,0.000171716
21,3,2.02177,0.000144377
22,3,2.0718,0.00012143
23,3,2.12175,0.000101975
24,3,2.17152,8.53019e-05
25,3,2.22098,7.08408e-05
26,3,2.27001,5.81285e-05
27,3,2.31848,4.67785e-05
28,3,2.36626,3.64607e-05
29,3,2.41321,2.68843e-05
30,3,2.45921,1.77839e-05
31,3,2.50411,8.90623e-06
9,4,1.49776,0.0021165
10,4,1.54263,0.0016168
11,4,1.58854,0.00126467
12,4,1.6354,0.00100617
13,4,1.68312,0.000810908
14,4,1.73162,0.000660329
15,4,1.78082,0.000542337
16,4,1.83065,0.000448643
17,4,1.88101,0.000373375
18,4,1.93182,0.000312267
19,4,1.98299,0.000262163
20,4,2.03441,0.000220692
21,4,2.08598,0.000186048
22,4,2.13759,0.000156834
23,4,2.18913,0.00013196
24,4,2.24048,0.000110558
25,4,2.2915,9.19286e-05
26,4,2.34208,7.54988e-05
27,4,2.39209,6.07878e-05
28,4,2.44138,4.73838e-05
29,4,2.48982,3.49238e-05
30,4,2.53727,2.30781e-05
31,4,2.5836,1.1537e-05
8,5,1.50049,0.00320531
9,5,1.54546,0.00233723
10,5,1.59172,0.0017958
11,5,1.63908,0.00141867
12,5,1.68742,0.0011402
13,5,1.73664,0.000927608
14,5,1.78667,0.000761772
15,5,1.83742,0.000630358
16,5,1.88882,0.000524906
17,5,1.94078,0.000439369
18,5,1.99319,0.000369313
19,5,2.04598,0.000311415
20,5,2.09902,0.000263149
21,5,2.15223,0.000222567
22,5,2.20547,0.000188148
23,5,2.25864,0.000158685
24,5,2.31161,0.000133213
25,5,2.36426,0.000110945
26,5,2.41644,9.12285e-05
27,5,2.46803,7.35149e-05
28,5,2.51888,5.73301e-05
29,5,2.56886,4.22552e-05
30,5,2.61782,2.79099e-05
31,5,2.66561,1.39387e-05
7,6,1.50157,0.00299959
8,6,1.54753,0.00271162
9,6,1.59434,0.00223165
10,6,1.64221,0.00181088
11,6,1.69112,0.00147438
12,6,1.74101,0.00120873
13,6,1.79181,0.00099794
14,6,1.84343,0.000829179
15,6,1.89579,0.000692805
16,6,1.94882,0.000581633
17,6,2.00242,0.000490255
18,6,2.0565,0.000414557
19,6,2.11095,0.000351373
20,6,2.16568,0.000298238
21,6,2.22057,0.000253214
22,6,2.2755,0.00021476
23,6,2.33036,0.000181639
24,6,2.38501,0.000152842
25,6,2.43932,0.00012754
26,6,2.49316,0.000105036
27,6,2.54638,8.47388e-05
28,6,2.59885,6.61328e-05
29,6,2.65041,4.87603e-05
30,6,2.70092,3.22044e-05
31,6,2.75023,1.60755e-05
6,7,1.50255,0.00301797
7,7,1.54885,0.0027117
8,7,1.59626,0.00241027
9,7,1.64471,0.00206723
10,7,1.69421,0.00174206
11,7,1.74474,0.00145962
12,7,1.79625,0.00122278
13,7,1.84868,0.00102665
14,7,1.90195,0.000864598
15,7,1.95599,0.00073045
16,7,2.0107,0.000618958
17,7,2.066,0.000525842
18,7,2.1218,0.000447656
19,7,2.17798,0.000381631
20,7,2.23445,0.000325541
21,7,2.29108,0.000277587
22,7,2.34775,0.000236305
23,7,2.40435,0.000200494
24,7,2.46073,0.000169161
25,7,2.51676,0.000141472
26,7,2.57231,0.000116721
27,7,2.62722,9.42977e-05
28,7,2.68135,7.3667e-05
29,7,2.73455,5.43489e-05
30,7,2.78666,3.59037e-05
31,7,2.83753,1.79193e-05
5,8,1.50349,0.00326046
6,8,1.54987,0.0027372
7,8,1.59764,0.00241929
8,8,1.6466,0.00215091
9,8,1.69667,0.0018853
10,8,1.74782,0.00163092
11,8,1.80002,0.00139964
12,8,1.85321,0.00119656
13,8,1.90733,0.00102167
14,8,1.96231,0.00087253
15,8,2.01807,0.000745849
16,8,2.07453,0.000638311
17,8,2.13159,0.000546894
18,8,2.18916,0.000468972
19,8,2.24713,0.000402314
20,8,2.30538,0.000345046
21,8,2.36381,0.000295596
22,8,2.42229,0.000252652
23,8,2.48068,0.000215106
24,8,2.53885,0.000182024
25,8,2.59666,0.000152606
26,8,2.65397,0.000126163
27,8,2.71062,0.000102091
28,8,2.76647,7.98528e-05
29,8,2.82136,5.89616e-05
30,8,2.87512,3.89687e-05
31,8,2.92761,1.94507e-05
1,9,1.36738,0.000545577
2,9,1.41128,0.0011096
3,9,1.45646,0.00166947
4,9,1.50283,0.00213752
5,9,1.55021,0.00236574
6,9,1.5985,0.0022514
7,9,1.64793,0.00207772
8,9,1.69854,0.00188915
9,9,1.75028,0.00169251
10,9,1.80312,0.00149709
11,9,1.85703,0.00131188
12,9,1.91194,0.00114255
13,9,1.96781,0.000991375
14,9,2.02456,0.000858428
15,9,2.0821,0.000742529
16,9,2.14036,0.00064196
17,9,2.19924,0.000554858
18,9,2.25864,0.000479417
19,9,2.31846,0.000413981
20,9,2.37857,0.000357077
21,9,2.43885,0.000307417
22,9,2.49918,0.00026388
23,9,2.55942,0.000225495
24,9,2.61944,0.000191418
25,9,2.67909,0.00016091
26,9,2.73822,0.000133324
27,9,2.79667,0.000108079
28,9,2.85429,8.46541e-05
29,9,2.91092,6.25698e-05
30,9,2.96639,4.13797e-05
31,9,3.02054,2.06598e-05
1,10,1.41067,0.000451377
2,10,1.45583,0.000895602
3,10,1.50228,0.00130688
4,10,1.54996,0.00163377
5,10,1.59879,0.00181389
6,10,1.64874,0.0018253
7,10,1.69985,0.00175141
8,10,1.75214,0.00163584
9,10,1.80559,0.00149891
10,10,1.86017,0.00135344
11,10,1.91583,0.00120869
12,10,1.97253,0.0010708
13,10,2.0302,0.000943295
14,10,2.08876,0.000827717
15,10,2.14815,0.000724315
16,10,2.20828,0.000632573
17,10,2.26903,0.000551581
18,10,2.33033,0.00048026
19,10,2.39204,0.000417498
20,10,2.45406,0.000362224
21,10,2.51626,0.000313442
22,10,2.57851,0.000270248
23,10,2.64067,0.000231825
24,10,2.70259,0.000197443
25,10,2.76413,0.000166443
26,10,2.82514,0.000138234
27,10,2.88545,0.000112276
28,10,2.9449,8.80765e-05
29,10,3.00332,6.51742e-05
30,10,3.06055,4.31358e-05
31,10,3.11642,2.15457e-05
1,11,1.45535,0.000364571
2,11,1.50183,0.000714812
3,11,1.54965,0.00102896
4,11,1.59875,0.00127712
5,11,1.64911,0.00143109
6,11,1.70068,0.00148484
7,11,1.75347,0.00146716
8,11,1.80748,0.00140429
9,11,1.86267,0.00131424
10,11,1.91903,0.00120951
11,11,1.9765,0.00109906
12,11,2.03503,0.000989116
13,11,2.09455,0.00088374
14,11,2.155,0.000785285
15,11,2.21629,0.000694891
16,11,2.27833,0.000612881
17,11,2.34103,0.000539067
18,11,2.40428,0.000472962
19,11,2.46796,0.000413923
20,11,2.53195,0.000361247
21,11,2.59613,0.000314217
22,11,2.66035,0.000272144
23,11,2.72449,0.000234372
24,11,2.78838,0.000200293
25,11,2.85188,0.000169338
26,11,2.91482,0.000140986
27,11,2.97704,0.000114746
28,11,3.03838,9.01618e-05
29,11,3.09866,6.68018e-05
30,11,3.1577,4.42528e-05
31,11,3.21535,2.21158e-05
1,12,1.50146,0.000292345
2,12,1.54934,0.000570385
3,12,1.59859,0.00081734
4,12,1.6492,0.00101496
5,12,1.70113,0.00114884
6,12,1.75435,0.0012162
7,12,1.80885,0.00122847
8,12,1.8646,0.00120033
9,12,1.92159,0.00114468
10,12,1.97977,0.00107175
11,12,2.03909,0.000989362
12,12,2.09951,0.00090333
13,12,2.16095,0.00081773
14,12,2.22333,0.000735259
15,12,2.28658,0.000657547
16,12,2.35061,0.000585452
17,12,2.41531,0.000519292
18,12,2.48057,0.000459027
19,12,2.54628,0.000404395
20,12,2.61231,0.000355003
21,12,2.67852,0.000310385
22,12,2.74479,0.000270047
23,12,2.81096,0.000233493
24,12,2.87689,0.000200231
25,12,2.9424,0.000169792
26,12,3.00734,0.000141722
27,12,3.07154,0.00011559
28,12,3.13482,9.09825e-05
29,12,3.19702,6.75015e-05
30,12,3.25794,4.47612e-05
31,12,3.31741,2.23846e-05
1,13,1.54906,0.000234681
2,13,1.59839,0.000457325
3,13,1.64915,0.000655356
4,13,1.70132,0.000816896
5,13,1.75487,0.000933461
6,13,1.80978,0.00100304
7,13,1.86603,0.00103057
8,13,1.92358,0.00102431
9,13,1.9824,0.00099285
10,13,2.04245,0.000943881
11,13,2.10368,0.000883783
12,13,2.16604,0.000817585
13,13,2.22945,0.000749073
14,13,2.29383,0.000680955
15,13,2.3591,0.000615068
16,13,2.42517,0.000552562
17,13,2.49194,0.000494081
18,13,2.55928,0.000439903
19,13,2.62708,0.00039005
20,13,2.69521,0.000344377
21,13,2.76353,0.00030263
22,13,2.83191,0.000264488
23,13,2.90018,0.000229592
24,13,2.9682,0.000197569
25,13,3.03579,0.000168038
26,13,3.1028,0.00014062
27,13,3.16904,0.000114941
28,13,3.23433,9.06348e-05
29,13,3.2985,6.73402e-05
30,13,3.36136,4.47029e-05
31,13,3.42272,2.23723e-05
1,14,1.59818,0.000189317
2,14,1.64902,0.00036917
3,14,1.70135,0.000530179
4,14,1.75515,0.000664145
5,14,1.81038,0.000765439
6,14,1.86703,0.000832296
7,14,1.92507,0.000866897
8,14,1.98446,0.000873919
9,14,2.04516,0.000858976
10,14,2.10714,0.000827612
11,14,2.17034,0.000784783
12,14,2.23469,0.000734646
13,14,2.30012,0.000680515
14,14,2.36657,0.00062492
15,14,2.43393,0.000569702
16,14,2.5021,0.000516135
17,14,2.57099,0.000465044
18,14,2.64048,0.000416911
19,14,2.71044,0.000371959
20,14,2.78074,0.000330232
21,14,2.85124,0.000291641
22,14,2.92178,0.000256009
23,14,2.99223,0.000223101
24,14,3.06241,0.000192644
25,14,3.13215,0.000164341
26,14,3.20128,0.000137883
27,14,3.26963,0.000112953
28,14,3.33699,8.92317e-05
29,14,3.4032,6.63973e-05
30,14,3.46805,4.41286e-05
31,14,3.53137,2.21036e-05
1,15,1.64887,0.000153693
2,15,1.70129,0.000300157
3,15,1.75525,0.000432374
4,15,1.81072,0.000544419
5,15,1.86769,0.000632233
6,15,1.92613,0.000694215
7,15,1.98601,0.000731227
8,15,2.04729,0.000745939
9,15,2.10994,0.000741989
10,15,2.1739,0.000723291
11,15,2.23911,0.000693588
12,15,2.30552,0.000656205
13,15,2.37305,0.000613935
14,15,2.44161,0.000569021
15,15,2.51112,0.000523196
16,15,2.58147,0.000477735
17,15,2.65256,0.000433541
18,15,2.72426,0.000391208
19,15,2.79644,0.000351093
20,15,2.86898,0.00031337
21,15,2.94172,0.000278075
22,15,3.01451,0.000245147
23,15,3.0872,0.000214451
24,15,3.15961,0.0001858
25,15,3.23157,0.000158973
26,15,3.30289,0.000133725
27,15,3.37341,0.000109791
28,15,3.44292,8.68967e-05
29,15,3.51123,6.47607e-05
30,15,3.57814,4.30944e-05
31,15,3.64346,2.1606e-05
1,16,1.70117,0.000125577
2,16,1.75523,0.000245702
3,16,1.81087,0.000355078
4,16,1.86809,0.000449288
5,16,1.92685,0.000525249
6,16,1.98714,0.00058152
7,16,2.04892,0.000618295
8,16,2.11215,0.000637083
9,16,2.17679,0.00064023
10,16,2.24279,0.000630471
11,16,2.31009,0.000610585
12,16,2.37861,0.000583173
13,16,2.4483,0.000550524
14,16,2.51905,0.000514565
15,16,2.59077,0.000476851
16,16,2.66336,0.000438589
17,16,2.73671,0.000400683
18,16,2.8107,0.000363776
19,16,2.88518,0.000328298
20,16,2.96002,0.00029451
21,16,3.03508,0.000262537
22,16,3.11018,0.000232404
23,16,3.18518,0.000204054
24,16,3.25989,0.000177375
25,16,3.33413,0.000152208
26,16,3.40773,0.000128362
27,16,3.48048,0.000105623
28,16,3.5522,8.37578e-05
29,16,3.62268,6.2522e-05
30,16,3.69172,4.16597e-05
31,16,3.75912,2.09083e-05
1,17,1.75515,0.000103205
2,17,1.81089,0.000202315
3,17,1.86828,0.000293297
4,17,1.9273,0.000372783
5,17,1.98791,0.00043836
6,17,2.05011,0.000488748
7,17,2.11384,0.000523804
8,17,2.17908,0.000544345
9,17,2.24578,0.000551874
10,17,2.31388,0.00054829
11,17,2.38332,0.000535636
12,17,2.45403,0.000515915
13,17,2.52594,0.000490969
14,17,2.59894,0.000462412
15,17,2.67295,0.000431597
16,17,2.74786,0.000399624
17,17,2.82354,0.000367349
18,17,2.89988,0.000335418
19,17,2.97673,0.000304291
20,17,3.05395,0.00027428
21,17,3.13139,0.000245567
22,17,3.20889,0.000218238
23,17,3.28627,0.000192297
24,17,3.36335,0.000167689
25,17,3.43996,0.000144306
26,17,3.51589,0.000122005
27,17,3.59096,0.000100616
28,17,3.66495,7.99424e-05
29,17,3.73767,5.97733e-05
30,17,3.8089,3.9884e-05
31,17,3.87844,2.00401e-05
1,18,1.81084,8.52294e-05
2,18,1.86834,0.000167386
3,18,1.92753,0.00024337
4,18,1.9884,0.000310574
5,18,2.05093,0.000367075
6,18,2.11509,0.000411752
7,18,2.18085,0.000444296
8,18,2.24816,0.000465109
9,18,2.31697,0.000475144
10,18,2.38724,0.000475709
11,18,2.45889,0.000468297
12,18,2.53185,0.000454436
13,18,2.60605,0.000435588
14,18,2.68138,0.000413079
15,18,2.75774,0.000388064
16,18,2.83503,0.000361513
17,18,2.91312,0.000334211
18,18,2.99189,0.000306773
19,18,3.07119,0.000279663
20,18,3.15087,0.00025321
21,18,3.23077,0.000227633
22,18,3.31073,0.000203056
23,18,3.39057,0.000179528
24,18,3.4701,0.000157035
25,18,3.54914,0.000135512
26,18,3.62749,0.000114856
27,18,3.70494,9.49303e-05
28,18,3.78128,7.55734e-05
29,18,3.85631,5.66042e-05
30,18,3.92981,3.78258e-05
31,18,4.00156,1.903e-05
1,19,1.86831,7.06361e-05
2,19,1.92761,0.000138969
3,19,1.98867,0.000202594
4,19,2.05146,0.000259468
5,19,2.11596,0.000308043
6,19,2.18215,0.000347347
7,19,2.24999,0.000377001
8,19,2.31944,0.000397159
9,19,2.39044,0.00040841
10,19,2.46294,0.000411653
11,19,2.53687,0.000407969
12,19,2.61215,0.000398518
13,19,2.68871,0.000384447
14,19,2.76643,0.000366834
15,19,2.84523,0.000346646
16,19,2.92498,0.000324723
17,19,3.00555,0.000301764
18,19,3.08682,0.000278337
19,19,3.16864,0.000254885
20,19,3.25086,0.000231739
21,19,3.3333,0.000209131
22,19,3.4158,0.000187211
23,19,3.49818,0.000166054
24,19,3.58024,0.000145678
25,19,3.66179,0.00012605
26,19,3.74263,0.000107097
27,19,3.82254,8.8714e-05
28,19,3.90131,7.07661e-05
29,19,3.97872,5.30989e-05
30,19,4.05455,3.55403e-05
31,19,4.12858,1.79054e-05
1,20,1.9276,5.86656e-05
2,20,1.98877,0.00011561
3,20,2.05175,0.000168952
4,20,2.11653,0.000217075
5,20,2.18307,0.000258723
6,20,2.25136,0.000293064
7,20,2.32135,0.000319699
8,20,2.39299,0.000338638
9,20,2.46625,0.00035023
10,20,2.54105,0.000355086
11,20,2.61733,0.000353988
12,20,2.69501,0.00034781
13,20,2.774,0.000337446
14,20,2.85419,0.000323763
15,20,2.9355,0.000307563
16,20,3.01778,0.000289557
17,20,3.10092,0.000270359
18,20,3.18477,0.000250478
19,20,3.26919,0.000230326
20,20,3.35402,0.000210218
21,20,3.43908,0.00019039
22,20,3.52421,0.000170999
23,20,3.6092,0.000152138
24,20,3.69387,0.000133847
25,20,3.77801,0.000116116
26,20,3.86142,9.88948e-05
27,20,3.94387,8.21016e-05
28,20,4.02514,6.56259e-05
29,20,4.10501,4.93352e-05
30,20,4.18325,3.30786e-05
31,20,4.25963,1.66917e-05
1,21,1.98878,4.87464e-05
2,21,2.05188,9.62148e-05
3,21,2.11685,0.000140923
4,21,2.18367,0.000181582
5,21,2.25232,0.000217168
6,21,2.32277,0.000246973
7,21,2.39497,0.000270609
8,21,2.46889,0.000288002
9,21,2.54448,0.000299348
10,21,2.62165,0.000305055
11,21,2.70036,0.000305686
12,21,2.7805,0.000301896
13,21,2.862,0.000294381
14,21,2.94475,0.00028383
15,21,3.02863,0.000270901
16,21,3.11353,0.000256191
17,21,3.19931,0.000240228
18,21,3.28583,0.000223462
19,21,3.37294,0.000206262
20,21,3.46046,0.000188924
21,21,3.54823,0.000171672
22,21,3.63606,0.000154665
23,21,3.72375,0.000138005
24,21,3.81111,0.000121741
25,21,3.89793,0.000105882
26,21,3.98398,9.03932e-05
27,21,4.06905,7.52122e-05
28,21,4.1529,6.02468e-05
29,21,4.23531,4.53826e-05
30,21,4.31604,3.04867e-05
31,21,4.39484,1.54117e-05
1,22,2.0519,4.04451e-05
2,22,2.11699,7.99541e-05
3,22,2.18402,0.00011735
4,22,2.25295,0.0001516
5,22,2.32378,0.000181868
6,22,2.39645,0.000207551
7,22,2.47095,0.000228291
8,22,2.54721,0.000243971
9,22,2.62519,0.000254684
10,22,2.70482,0.0002607
11,22,2.78602,0.000262422
12,22,2.86871,0.000260339
13,22,2.9528,0.000254987
14,22,3.03818,0.000246915
15,22,3.12473,0.000236655
16,22,3.21233,0.000224705
17,22,3.30084,0.000211513
18,22,3.39011,0.000197466
19,22,3.47998,0.000182895
20,22,3.57028,0.000168065
21,22,3.66084,0.000153185
22,22,3.75146,0.000138408
23,22,3.84194,0.000123836
24,22,3.93207,0.000109525
25,22,4.02165,9.54924e-05
26,22,4.11043,8.17173e-05
27,22,4.19821,6.81492e-05
28,22,4.28472,5.47109e-05
29,22,4.36975,4.13023e-05
30,22,4.45304,2.78049e-05
31,22,4.53435,1.40855e-05
1,23,2.11702,3.34307e-05
2,23,2.18418,6.61917e-05
3,23,2.25332,9.73437e-05
4,23,2.32444,0.000126054
5,23,2.3975,0.000151639
6,23,2.47248,0.000173588
7,23,2.54934,0.000191581
8,23,2.62802,0.00020548
9,23,2.70848,0.000215315
10,23,2.79063,0.000221259
11,23,2.87441,0.000223599
12,23,2.95973,0.000222698
13,23,3.04649,0.00021897
14,23,3.13458,0.000212846
15,23,3.22388,0.000204756
16,23,3.31426,0.000195109
17,23,3.40558,0.000184281
18,23,3.49769,0.000172603
19,23,3.59042,0.000160361
20,23,3.68359,0.000147793
21,23,3.77702,0.000135086
22,23,3.87052,0.000122382
23,23,3.96388,0.000109779
24,23,4.05687,9.73344e-05
25,23,4.14929,8.50692e-05
26,23,4.2409,7.29714e-05
27,23,4.33146,6.09998e-05
28,23,4.42073,4.90877e-05
29,23,4.50846,3.71463e-05
30,23,4.59439,2.50679e-05
31,23,4.67828,1.27303e-05
1,24,2.18422,2.74478e-05
2,24,2.2535,5.44362e-05
3,24,2.32483,8.02119e-05
4,24,2.3982,0.000104102
5,24,2.47358,0.000125546
6,24,2.55093,0.000144117
7,24,2.63023,0.00015953
8,24,2.71141,0.000171645
9,24,2.79441,0.000180453
10,24,2.87917,0.000186062
11,24,2.96561,0.000188673
12,24,3.05364,0.000188556
13,24,3.14315,0.000186026
14,24,3.23404,0.000181423
15,24,3.32618,0.000175091
16,24,3.41943,0.000167363
17,24,3.51365,0.000158548
18,24,3.60869,0.000148929
19,24,3.70436,0.000138749
20,24,3.80049,0.000128214
21,24,3.8969,0.00011749
22,24,3.99336,0.000106705
23,24,4.08968,9.59486e-05
24,24,4.18564,8.5276e-05
25,24,4.28099,7.47093e-05
26,24,4.37551,6.42407e-05
27,24,4.46895,5.38356e-05
28,24,4.56105,4.34347e-05
29,24,4.65157,3.29573e-05
30,24,4.74023,2.2304e-05
31,24,4.82679,1.13603e-05
1,25,2.25355,2.22976e-05
2,25,2.32502,4.43037e-05
3,25,2.39861,6.54124e-05
4,25,2.4743,8.50792e-05
5,25,2.55207,0.000102845
6,25,2.63188,0.000118354
7,25,2.71369,0.00013136
8,25,2.79744,0.000141727
9,25,2.88308,0.000149427
10,25,2.97053,0.000154522
11,25,3.05971,0.000157152
12,25,3.15054,0.000157516
13,25,3.24289,0.000155855
14,25,3.33667,0.000152432
15,25,3.43173,0.000147521
16,25,3.52795,0.000141389
17,25,3.62516,0.000134292
18,25,3.72321,0.000126462
19,25,3.82192,0.000118105
20,25,3.92111,0.000109395
21,25,4.02058,0.000100478
22,25,4.12011,9.14634e-05
23,25,4.21949,8.24321e-05
24,25,4.31849,7.34338e-05
25,25,4.41687,6.44893e-05
26,25,4.51439,5.55928e-05
27,25,4.6108,4.67133e-05
28,25,4.70583,3.77971e-05
29,25,4.79922,2.87689e-05
30,25,4.8907,1.95353e-05
31,25,4.98,9.98635e-06
1,26,2.32508,1.7824e-05
2,26,2.39881,3.54921e-05
3,26,2.47474,5.25159e-05
4,26,2.55283,6.8455e-05
5,26,2.63306,8.29357e-05
6,26,2.7154,9.56632e-05
7,26,2.7998,0.000106428
8,26,2.88621,0.000115108
9,26,2.97456,0.000121663
10,26,3.06479,0.000126127
11,26,3.15681,0.000128596
12,26,3.25051,0.000129215
13,26,3.3458,0.000128167
14,26,3.44255,0.000125655
15,26,3.54063,0.000121892
16,26,3.63991,0.000117092
17,26,3.74021,0.000111461
18,26,3.84137,0.000105189
19,26,3.94322,9.84451e-05
20,26,4.04556,9.13755e-05
21,26,4.14818,8.41014e-05
22,26,4.25088,7.67176e-05
23,26,4.35341,6.92928e-05
24,26,4.45556,6.18699e-05
25,26,4.55707,5.4467e-05
26,26,4.65769,4.70784e-05
27,26,4.75715,3.96755e-05
28,26,4.8552,3.22082e-05
29,26,4.95155,2.46054e-05
30,26,5.04594,1.67772e-05
31,26,5.13808,8.61593e-06
1,27,2.39888,1.39037e-05
2,27,2.47495,2.77617e-05
3,27,2.55328,4.11798e-05
4,27,2.63385,5.38033e-05
5,27,2.71662,6.53305e-05
6,27,2.80157,7.5521e-05
7,27,2.88865,8.42012e-05
8,27,2.9778,9.12645e-05
9,27,3.06896,9.66684e-05
10,27,3.16205,0.000100428
11,27,3.25698,0.00010261
12,27,3.35366,0.000103318
13,27,3.45198,0.000102688
14,27,3.5518,0.000100874
15,27,3.653,9.80422e-05
16,27,3.75542,9.43589e-05
17,27,3.85891,8.99862e-05
18,27,3.96329,8.50755e-05
19,27,4.06837,7.97635e-05
20,27,4.17396,7.41689e-05
21,27,4.27984,6.83907e-05
22,27,4.3858,6.2507e-05
23,27,4.49159,5.65745e-05
24,27,4.59698,5.06287e-05
25,27,4.70171,4.46839e-05
26,27,4.80553,3.87337e-05
27,27,4.90815,3.27513e-05
28,27,5.00931,2.66895e-05
29,27,5.10873,2.0481e-05
30,27,5.20611,1.40378e-05
31,27,5.30118,7.2525e-06
1,28,2.47502,1.04395e-05
2,28,2.55351,2.09217e-05
3,28,2.63432,3.1129e-05
4,28,2.71744,4.07784e-05
5,28,2.80284,4.96303e-05
6,28,2.89048,5.74942e-05
7,28,2.98032,6.42307e-05
8,28,3.0723,6.97514e-05
9,28,3.16635,7.4017e-05
10,28,3.2624,7.70324e-05
11,28,3.36034,7.8841e-05
12,28,3.46009,7.95173e-05
13,28,3.56153,7.91599e-05
14,28,3.66452,7.78833e-05
15,28,3.76893,7.58114e-05
16,28,3.87461,7.30709e-05
17,28,3.98138,6.97858e-05
18,28,4.08908,6.60727e-05
19,28,4.19749,6.20379e-05
20,28,4.30644,5.77742e-05
21,28,4.41568,5.33594e-05
22,28,4.525,4.88551e-05
23,28,4.63416,4.43061e-05
24,28,4.74289,3.97402e-05
25,28,4.85095,3.51677e-05
26,28,4.95806,3.05816e-05
27,28,5.06395,2.5957e-05
28,28,5.16832,2.12505e-05
29,28,5.27089,1.63987e-05
30,28,5.37137,1.13164e-05
31,28,5.46946,5.89438e-06
1,29,2.55358,7.35548e-06
2,29,2.63456,1.48217e-05
3,29,2.71793,2.21427e-05
4,29,2.80369,2.9098e-05
5,29,2.89179,3.55049e-05
6,29,2.98222,4.12193e-05
7,29,3.07491,4.61356e-05
8,29,3.1698,5.01858e-05
9,29,3.26684,5.33374e-05
10,29,3.36593,5.55902e-05
11,29,3.46699,5.69719e-05
12,29,3.5699,5.75334e-05
13,29,3.67456,5.73435e-05
14,29,3.78082,5.64831e-05
15,29,3.88855,5.50407e-05
16,29,3.99758,5.31076e-05
17,29,4.10774,5.07735e-05
18,29,4.21886,4.81237e-05
19,29,4.33072,4.5236e-05
20,29,4.44312,4.21787e-05
21,29,4.55583,3.90094e-05
22,29,4.66863,3.57738e-05
23,29,4.78125,3.2505e-05
24,29,4.89344,2.92231e-05
25,29,5.00493,2.59349e-05
26,29,5.11544,2.26334e-05
27,29,5.22469,1.92969e-05
28,29,5.33237,1.58876e-05
29,29,5.4382,1.23486e-05
30,29,5.54187,8.59992e-06
31,29,5.64308,4.53214e-06
1,30,2.63464,4.59732e-06
2,30,2.71818,9.34661e-06
3,30,2.8042,1.40446e-05
4,30,2.89267,1.85305e-05
5,30,2.98358,2.26771e-05
6,30,3.07687,2.63866e-05
7,30,3.1725,2.95873e-05
8,30,3.2704,3.22332e-05
9,30,3.37052,3.43012e-05
10,30,3.47276,3.57895e-05
11,30,3.57702,3.67148e-05
12,30,3.6832,3.71088e-05
13,30,3.79118,3.7015e-05
14,30,3.90082,3.64856e-05
15,30,4.01196,3.55775e-05
16,30,4.12445,3.43499e-05
17,30,4.23812,3.28614e-05
18,30,4.35276,3.11679e-05
19,30,4.46817,2.93203e-05
20,30,4.58414,2.73639e-05
21,30,4.70044,2.53366e-05
22,30,4.81681,2.32686e-05
23,30,4.93301,2.11816e-05
24,30,5.04876,1.90888e-05
25,30,5.16379,1.69938e-05
26,30,5.27781,1.4891e-05
27,30,5.39053,1.27637e-05
28,30,5.50164,1.05828e-05
29,30,5.61083,8.30327e-06
30,30,5.71779,5.85743e-06
31,30,5.8222,3.14257e-06
1,31,2.71827,2.1376e-06
2,31,2.80446,4.41781e-06
3,31,2.89321,6.69769e-06
4,31,2.98449,8.88459e-06
5,31,3.07827,1.09111e-05
6,31,3.17452,1.27271e-05
7,31,3.27319,1.42963e-05
8,31,3.3742,1.55954e-05
9,31,3.47749,1.66128e-05
10,31,3.58297,1.7347e-05
11,31,3.69055,1.7806e-05
12,31,3.8001,1.80052e-05
13,31,3.9115,1.79659e-05
14,31,4.02462,1.77135e-05
15,31,4.1393,1.72762e-05
16,31,4.25536,1.66833e-05
17,31,4.37263,1.59637e-05
18,31,4.49091,1.51452e-05
19,31,4.60999,1.42531e-05
20,31,4.72964,1.331e-05
21,31,4.84963,1.23347e-05
22,31,4.9697,1.13423e-05
23,31,5.08959,1.03435e-05
24,31,5.20901,9.34486e-06
25,31,5.3277,8.34788e-06
26,31,5.44534,7.34918e-06
27,31,5.56163,6.33958e-06
28,31,5.67627,5.30286e-06
29,31,5.78893,4.21299e-06
30,31,5.89929,3.02782e-06
31,31,6.00702,1.67344e-06
