18,1,1.34069,-8.66643e-08
19,1,1.36092,-1.47201e-07
20,1,1.38135,-1.96528e-07
21,1,1.40199,-2.37739e-07
22,1,1.42283,-2.72688e-07
23,1,1.44385,-3.02469e-07
24,1,1.46506,-3.27812e-07
25,1,1.48645,-3.49255e-07
26,1,1.50801,-3.67231e-07
27,1,1.52974,-3.82091e-07
28,1,1.55162,-3.94125e-07
29,1,1.57366,-4.03574e-07
30,1,1.59583,-4.1064e-07
31,1,1.61814,-4.15494e-07
32,1,1.64058,-4.18277e-07
33,1,1.66313,-4.19115e-07
34,1,1.68579,-4.18113e-07
35,1,1.70855,-4.15368e-07
36,1,1.73139,-4.10963e-07
37,1,1.75432,-4.0498e-07
38,1,1.7773,-3.9749e-07
39,1,1.80035,-3.88564e-07
40,1,1.82343,-3.78273e-07
41,1,1.84655,-3.66685e-07
42,1,1.86969,-3.53868e-07
43,1,1.89284,-3.39896e-07
44,1,1.91599,-3.24843e-07
45,1,1.93911,-3.08785e-07
46,1,1.96221,-2.91807e-07
47,1,1.98526,-2.73994e-07
48,1,2.00825,-2.55442e-07
49,1,2.03117,-2.3625e-07
50,1,2.05401,-2.16529e-07
51,1,2.07674,-1.96397e-07
52,1,2.09936,-1.75984e-07
53,1,2.12185,-1.55432e-07
54,1,2.1442,-1.349e-07
55,1,2.16638,-1.14567e-07
56,1,2.1884,-9.46346e-08
57,1,2.21022,-7.53396e-08
58,1,2.23183,-5.69621e-08
59,1,2.25322,-3.98482e-08
60,1,2.27438,-2.44452e-08
61,1,2.29528,-1.13718e-08
62,1,2.31591,-1.56873e-09
63,1,2.33626,3.33426e-09
18,2,1.3618,-1.6782e-07
19,2,1.38235,-2.86162e-07
20,2,1.40311,-3.81405e-07
21,2,1.42407,-4.61681e-07
22,2,1.44523,-5.30228e-07
23,2,1.46659,-5.88842e-07
24,2,1.48813,-6.38799e-07
25,2,1.50986,-6.8111e-07
26,2,1.53176,-7.16604e-07
27,2,1.55383,-7.45969e-07
28,2,1.57606,-7.69777e-07
29,2,1.59844,-7.88502e-07
30,2,1.62096,-8.02542e-07
31,2,1.64363,-8.12232e-07
32,2,1.66642,-8.17855e-07
33,2,1.68932,-8.19655e-07
34,2,1.71234,-8.17844e-07
35,2,1.73546,-8.12613e-07
36,2,1.75866,-8.04129e-07
37,2,1.78194,-7.9255e-07
38,2,1.80529,-7.78023e-07
39,2,1.8287,-7.60688e-07
40,2,1.85215,-7.40684e-07
41,2,1.87563,-7.18149e-07
42,2,1.89914,-6.9322e-07
43,2,1.92265,-6.66042e-07
44,2,1.94616,-6.36761e-07
45,2,1.96965,-6.05533e-07
46,2,1.99311,-5.72522e-07
47,2,2.01652,-5.37902e-07
48,2,2.03987,-5.0186e-07
49,2,2.06316,-4.64594e-07
50,2,2.08635,-4.26323e-07
51,2,2.10945,-3.87279e-07
52,2,2.13242,-3.4772e-07
53,2,2.15527,-3.07927e-07
54,2,2.17796,-2.68213e-07
55,2,2.2005,-2.28925e-07
56,2,2.22286,-1.9046e-07
57,2,2.24502,-1.53276e-07
58,2,2.26698,-1.17909e-07
59,2,2.2887,-8.50131e-08
60,2,2.31019,-5.54102e-08
61,2,2.33142,-3.01837e-08
62,2,2.35238,-1.08451e-08
63,2,2.37305,3.68523e-10
18,3,1.38324,-2.79044e-07
19,3,1.40412,-4.28467e-07
20,3,1.4252,-5.61169e-07
21,3,1.44649,-6.76979e-07
22,3,1.46799,-7.77066e-07
23,3,1.48968,-8.63012e-07
24,3,1.51157,-9.36385e-07
25,3,1.53364,-9.98584e-07
26,3,1.55588,-1.0508e-06
27,3,1.5783,-1.09404e-06
28,3,1.60088,-1.12912e-06
29,3,1.62361,-1.15676e-06
30,3,1.64649,-1.17751e-06
31,3,1.66951,-1.19188e-06
32,3,1.69266,-1.20028e-06
33,3,1.71593,-1.20307e-06
34,3,1.73931,-1.20055e-06
35,3,1.76278,-1.19302e-06
36,3,1.78635,-1.18071e-06
37,3,1.81,-1.16386e-06
38,3,1.83372,-1.14268e-06
39,3,1.8575,-1.11739e-06
40,3,1.88132,-1.0882e-06
41,3,1.90517,-1.0553e-06
42,3,1.92904,-1.0189e-06
43,3,1.95293,-9.79223e-07
44,3,1.9768,-9.36479e-07
45,3,2.00066,-8.90902e-07
46,3,2.02449,-8.42735e-07
47,3,2.04828,-7.92237e-07
48,3,2.072,-7.39686e-07
49,3,2.09565,-6.85376e-07
50,3,2.11921,-6.29628e-07
51,3,2.14266,-5.72789e-07
52,3,2.166,-5.15236e-07
53,3,2.18921,-4.57384e-07
54,3,2.21226,-3.99687e-07
55,3,2.23515,-3.42656e-07
56,3,2.25786,-2.86864e-07
57,3,2.28037,-2.32963e-07
58,3,2.30268,-1.81715e-07
59,3,2.32475,-1.34023e-07
60,3,2.34657,-9.09874e-08
61,3,2.36814,-5.39869e-08
62,3,2.38943,-2.48027e-08
63,3,2.41042,-5.78126e-09
18,4,1.40503,-3.84452e-07
19,4,1.42623,-5.67428e-07
20,4,1.44764,-7.3743e-07
21,4,1.46927,-8.87306e-07
22,4,1.49111,-1.01709e-06
23,4,1.51314,-1.12857e-06
24,4,1.53537,-1.22377e-06
25,4,1.55779,-1.30451e-06
26,4,1.58038,-1.37234e-06
27,4,1.60315,-1.42855e-06
28,4,1.62609,-1.4742e-06
29,4,1.64918,-1.51019e-06
30,4,1.67242,-1.53725e-06
31,4,1.6958,-1.55602e-06
32,4,1.71931,-1.56702e-06
33,4,1.74295,-1.57072e-06
34,4,1.76669,-1.56752e-06
35,4,1.79054,-1.55778e-06
36,4,1.81449,-1.54183e-06
37,4,1.83851,-1.51997e-06
38,4,1.8626,-1.49248e-06
39,4,1.88675,-1.45964e-06
40,4,1.91094,-1.42171e-06
41,4,1.93517,-1.37898e-06
42,4,1.95942,-1.3317e-06
43,4,1.98368,-1.28016e-06
44,4,2.00793,-1.22466e-06
45,4,2.03217,-1.16549e-06
46,4,2.05637,-1.10298e-06
47,4,2.08053,-1.03746e-06
48,4,2.10463,-9.693e-07
49,4,2.12865,-8.98891e-07
50,4,2.15258,-8.26651e-07
51,4,2.17641,-7.53033e-07
52,4,2.20011,-6.78528e-07
53,4,2.22368,-6.03675e-07
54,4,2.2471,-5.29064e-07
55,4,2.27035,-4.55349e-07
56,4,2.29342,-3.83261e-07
57,4,2.31629,-3.13623e-07
58,4,2.33894,-2.47381e-07
59,4,2.36136,-1.85628e-07
60,4,2.38353,-1.29659e-07
61,4,2.40543,-8.10245e-08
62,4,2.42705,-4.16056e-08
63,4,2.44838,-1.36896e-08
18,5,1.42715,-4.50219e-07
19,5,1.44869,-6.98979e-07
20,5,1.47044,-9.131e-07
21,5,1.49241,-1.09671e-06
22,5,1.51459,-1.25411e-06
23,5,1.53697,-1.38888e-06
24,5,1.55955,-1.50389e-06
25,5,1.58232,-1.60147e-06
26,5,1.60527,-1.68352e-06
27,5,1.6284,-1.75156e-06
28,5,1.65169,-1.80687e-06
29,5,1.67515,-1.85051e-06
30,5,1.69875,-1.88333e-06
31,5,1.7225,-1.90609e-06
32,5,1.74639,-1.91943e-06
33,5,1.77039,-1.92388e-06
34,5,1.79452,-1.91994e-06
35,5,1.81874,-1.90804e-06
36,5,1.84306,-1.88856e-06
37,5,1.86746,-1.86188e-06
38,5,1.89193,-1.82835e-06
39,5,1.91646,-1.7883e-06
40,5,1.94104,-1.74206e-06
41,5,1.96565,-1.68995e-06
42,5,1.99028,-1.63233e-06
43,5,2.01492,-1.56953e-06
44,5,2.03955,-1.50191e-06
45,5,2.06417,-1.42984e-06
46,5,2.08876,-1.35372e-06
47,5,2.11329,-1.27397e-06
48,5,2.13777,-1.19104e-06
49,5,2.16217,-1.1054e-06
50,5,2.18648,-1.01756e-06
51,5,2.21068,-9.28088e-07
52,5,2.23476,-8.37572e-07
53,5,2.2587,-7.46669e-07
54,5,2.28249,-6.56089e-07
55,5,2.3061,-5.66618e-07
56,5,2.32953,-4.79123e-07
57,5,2.35276,-3.94571e-07
58,5,2.37577,-3.14055e-07
59,5,2.39854,-2.38814e-07
60,5,2.42106,-1.70271e-07
61,5,2.44331,-1.10071e-07
62,5,2.46528,-6.01184e-08
63,5,2.48694,-2.26063e-08
17,6,1.42798,-7.08854e-08
18,6,1.44963,-5.26872e-07
19,6,1.4715,-8.44468e-07
20,6,1.4936,-1.09823e-06
21,6,1.51591,-1.31097e-06
22,6,1.53844,-1.49215e-06
23,6,1.56117,-1.64708e-06
24,6,1.58411,-1.77938e-06
25,6,1.60723,-1.89176e-06
26,6,1.63055,-1.98637e-06
27,6,1.65404,-2.06492e-06
28,6,1.6777,-2.12882e-06
29,6,1.70153,-2.17924e-06
30,6,1.72551,-2.21717e-06
31,6,1.74963,-2.24343e-06
32,6,1.77389,-2.25874e-06
33,6,1.79827,-2.26371e-06
34,6,1.82278,-2.2589e-06
35,6,1.84738,-2.2448e-06
36,6,1.87208,-2.22187e-06
37,6,1.89687,-2.19052e-06
38,6,1.92172,-2.15116e-06
39,6,1.94664,-2.10419e-06
40,6,1.9716,-2.04999e-06
41,6,1.9966,-1.98895e-06
42,6,2.02162,-1.92146e-06
43,6,2.04665,-1.84793e-06
44,6,2.07167,-1.76878e-06
45,6,2.09668,-1.68445e-06
46,6,2.12165,-1.59541e-06
47,6,2.14657,-1.50215e-06
48,6,2.17143,-1.4052e-06
49,6,2.19622,-1.30512e-06
50,6,2.22091,-1.20251e-06
51,6,2.24549,-1.09801e-06
52,6,2.26995,-9.92337e-07
53,6,2.29427,-8.86234e-07
54,6,2.31843,-7.80528e-07
55,6,2.34242,-6.76116e-07
56,6,2.36622,-5.73986e-07
57,6,2.38981,-4.75225e-07
58,6,2.41318,-3.81042e-07
59,6,2.43631,-2.92783e-07
60,6,2.45919,-2.11961e-07
61,6,2.48179,-1.4027e-07
62,6,2.5041,-7.96117e-08
63,6,2.5261,-3.2092e-08
17,7,1.45047,-3.90524e-07
18,7,1.47246,-7.21261e-07
19,7,1.49467,-1.03276e-06
20,7,1.51712,-1.30302e-06
21,7,1.53978,-1.53511e-06
22,7,1.56267,-1.73448e-06
23,7,1.58576,-1.90572e-06
24,7,1.60905,-2.05238e-06
25,7,1.63254,-2.17727e-06
26,7,1.65623,-2.2826e-06
27,7,1.68009,-2.37017e-06
28,7,1.70412,-2.44147e-06
29,7,1.72832,-2.49774e-06
30,7,1.75268,-2.54002e-06
31,7,1.77718,-2.5692e-06
32,7,1.80182,-2.58605e-06
33,7,1.82659,-2.59125e-06
34,7,1.85148,-2.58538e-06
35,7,1.87647,-2.56901e-06
36,7,1.90156,-2.54263e-06
37,7,1.92674,-2.50671e-06
38,7,1.95199,-2.46171e-06
39,7,1.97729,-2.40806e-06
40,7,2.00265,-2.34622e-06
41,7,2.02804,-2.2766e-06
42,7,2.05346,-2.19968e-06
43,7,2.07888,-2.1159e-06
44,7,2.1043,-2.02576e-06
45,7,2.12969,-1.92975e-06
46,7,2.15506,-1.82842e-06
47,7,2.18038,-1.72231e-06
48,7,2.20563,-1.61204e-06
49,7,2.2308,-1.49824e-06
50,7,2.25588,-1.3816e-06
51,7,2.28085,-1.26285e-06
52,7,2.3057,-1.14279e-06
53,7,2.3304,-1.02225e-06
54,7,2.35494,-9.0217e-07
55,7,2.37931,-7.83543e-07
56,7,2.40348,-6.67457e-07
57,7,2.42745,-5.55102e-07
58,7,2.45118,-4.47778e-07
59,7,2.47468,-3.46915e-07
60,7,2.49791,-2.54086e-07
61,7,2.52087,-1.71018e-07
62,7,2.54353,-9.95984e-08
63,7,2.56588,-4.18686e-08
17,8,1.47331,-5.31273e-07
18,8,1.49564,-9.13915e-07
19,8,1.51821,-1.24092e-06
20,8,1.54101,-1.52428e-06
21,8,1.56403,-1.76992e-06
22,8,1.58728,-1.98262e-06
23,8,1.61073,-2.16637e-06
24,8,1.63439,-2.32441e-06
25,8,1.65825,-2.45941e-06
26,8,1.68231,-2.57354e-06
27,8,1.70654,-2.66858e-06
28,8,1.73096,-2.74603e-06
29,8,1.75554,-2.80713e-06
30,8,1.78028,-2.85296e-06
31,8,1.80517,-2.88443e-06
32,8,1.8302,-2.90235e-06
33,8,1.85536,-2.90742e-06
34,8,1.88064,-2.90028e-06
35,8,1.90602,-2.88151e-06
36,8,1.93151,-2.85165e-06
37,8,1.95708,-2.81121e-06
38,8,1.98272,-2.76069e-06
39,8,2.00843,-2.70058e-06
40,8,2.03419,-2.63136e-06
41,8,2.05998,-2.55351e-06
42,8,2.08579,-2.46754e-06
43,8,2.11162,-2.37396e-06
44,8,2.13743,-2.27331e-06
45,8,2.16323,-2.16616e-06
46,8,2.189,-2.0531e-06
47,8,2.21471,-1.93476e-06
48,8,2.24036,-1.8118e-06
49,8,2.26593,-1.68495e-06
50,8,2.29141,-1.55496e-06
51,8,2.31677,-1.42265e-06
52,8,2.34201,-1.28889e-06
53,8,2.3671,-1.15461e-06
54,8,2.39203,-1.02083e-06
55,8,2.41678,-8.8864e-07
56,8,2.44133,-7.59207e-07
57,8,2.46567,-6.33806e-07
58,8,2.48979,-5.13816e-07
59,8,2.51365,-4.00731e-07
60,8,2.53725,-2.9617e-07
61,8,2.56057,-2.01881e-07
62,8,2.58359,-1.19742e-07
63,8,2.60629,-5.175e-08
16,9,1.47407,-3.6591e-07
17,9,1.49651,-7.68642e-07
18,9,1.5192,-1.1409e-06
19,9,1.54212,-1.47102e-06
20,9,1.56528,-1.76121e-06
21,9,1.58866,-2.01531e-06
22,9,1.61227,-2.23706e-06
23,9,1.6361,-2.4298e-06
24,9,1.66013,-2.59637e-06
25,9,1.68437,-2.73915e-06
26,9,1.7088,-2.86017e-06
27,9,1.73342,-2.96112e-06
28,9,1.75822,-3.04344e-06
29,9,1.78318,-3.10834e-06
30,9,1.80831,-3.15688e-06
31,9,1.8336,-3.18999e-06
32,9,1.85902,-3.20846e-06
33,9,1.88457,-3.21303e-06
34,9,1.91025,-3.20435e-06
35,9,1.93604,-3.18302e-06
36,9,1.96192,-3.14962e-06
37,9,1.9879,-3.10469e-06
38,9,2.01395,-3.04876e-06
39,9,2.04006,-2.98235e-06
40,9,2.06622,-2.90598e-06
41,9,2.09242,-2.82019e-06
42,9,2.11864,-2.72552e-06
43,9,2.14487,-2.62254e-06
44,9,2.17109,-2.51183e-06
45,9,2.1973,-2.39402e-06
46,9,2.22347,-2.26976e-06
47,9,2.24959,-2.13973e-06
48,9,2.27564,-2.00468e-06
49,9,2.30162,-1.86538e-06
50,9,2.32749,-1.72267e-06
51,9,2.35326,-1.57743e-06
52,9,2.37889,-1.4306e-06
53,9,2.40437,-1.28322e-06
54,9,2.42969,-1.13636e-06
55,9,2.45483,-9.91192e-07
56,9,2.47978,-8.48963e-07
57,9,2.5045,-7.1102e-07
58,9,2.52899,-5.78804e-07
59,9,2.55323,-4.53863e-07
60,9,2.57721,-3.37854e-07
61,9,2.60089,-2.32543e-07
62,9,2.62427,-1.39804e-07
63,9,2.64733,-6.16067e-08
15,10,1.47474,-5.95316e-08
16,10,1.49729,-5.88875e-07
17,10,1.52008,-1.01527e-06
18,10,1.54312,-1.38838e-06
19,10,1.5664,-1.71901e-06
20,10,1.58993,-2.01183e-06
21,10,1.61368,-2.27031e-06
22,10,1.63766,-2.4975e-06
23,10,1.66186,-2.69614e-06
24,10,1.68627,-2.86862e-06
25,10,1.71089,-3.01701e-06
26,10,1.73571,-3.14311e-06
27,10,1.76071,-3.24846e-06
28,10,1.7859,-3.3344e-06
29,10,1.81126,-3.40208e-06
30,10,1.83679,-3.4525e-06
31,10,1.86247,-3.48658e-06
32,10,1.88829,-3.50509e-06
33,10,1.91425,-3.50876e-06
34,10,1.94033,-3.49826e-06
35,10,1.96653,-3.4742e-06
36,10,1.99282,-3.43717e-06
37,10,2.0192,-3.38774e-06
38,10,2.04566,-3.32646e-06
39,10,2.07218,-3.25389e-06
40,10,2.09876,-3.17058e-06
41,10,2.12537,-3.07711e-06
42,10,2.152,-2.97406e-06
43,10,2.17865,-2.86203e-06
44,10,2.20528,-2.74167e-06
45,10,2.2319,-2.61365e-06
46,10,2.25848,-2.47866e-06
47,10,2.28501,-2.33747e-06
48,10,2.31148,-2.19086e-06
49,10,2.33786,-2.03967e-06
50,10,2.36415,-1.8848e-06
51,10,2.39031,-1.72721e-06
52,10,2.41635,-1.56792e-06
53,10,2.44224,-1.408e-06
54,10,2.46796,-1.24863e-06
55,10,2.49349,-1.09102e-06
56,10,2.51883,-9.36507e-07
57,10,2.54394,-7.86489e-07
58,10,2.56882,-6.42464e-07
59,10,2.59344,-5.06027e-07
60,10,2.61779,-3.78867e-07
61,10,2.64185,-2.62769e-07
62,10,2.6656,-1.5961e-07
63,10,2.68902,-7.1346e-08
15,11,1.49797,-4.6776e-07
16,11,1.52086,-8.93696e-07
17,11,1.54402,-1.29362e-06
18,11,1.56742,-1.65635e-06
19,11,1.59107,-1.98243e-06
20,11,1.61496,-2.27403e-06
21,11,1.63909,-2.5335e-06
22,11,1.66345,-2.76312e-06
23,11,1.68803,-2.96501e-06
24,11,1.71283,-3.1411e-06
25,11,1.73783,-3.29314e-06
26,11,1.76304,-3.42265e-06
27,11,1.78844,-3.531e-06
28,11,1.81403,-3.61938e-06
29,11,1.83979,-3.68886e-06
30,11,1.86572,-3.74037e-06
31,11,1.8918,-3.77475e-06
32,11,1.91803,-3.79279e-06
33,11,1.9444,-3.79517e-06
34,11,1.97089,-3.78256e-06
35,11,1.99749,-3.75558e-06
36,11,2.0242,-3.71482e-06
37,11,2.051,-3.66086e-06
38,11,2.07788,-3.59429e-06
39,11,2.10482,-3.51568e-06
40,11,2.13181,-3.4256e-06
41,11,2.15884,-3.32468e-06
42,11,2.18589,-3.21352e-06
43,11,2.21295,-3.09279e-06
44,11,2.24001,-2.96314e-06
45,11,2.26705,-2.82532e-06
46,11,2.29405,-2.68005e-06
47,11,2.321,-2.52816e-06
48,11,2.34788,-2.37048e-06
49,11,2.37468,-2.20792e-06
50,11,2.40138,-2.04144e-06
51,11,2.42796,-1.87204e-06
52,11,2.4544,-1.70081e-06
53,11,2.4807,-1.52889e-06
54,11,2.50682,-1.35752e-06
55,11,2.53276,-1.18798e-06
56,11,2.55849,-1.02166e-06
57,11,2.584,-8.60008e-07
58,11,2.60927,-7.04578e-07
59,11,2.63428,-5.57003e-07
60,11,2.65902,-4.19003e-07
61,11,2.68345,-2.92384e-07
62,11,2.70757,-1.79032e-07
63,11,2.73136,-8.08999e-08
14,12,1.49857,-3.28831e-07
15,12,1.52156,-7.86537e-07
16,12,1.54481,-1.2031e-06
17,12,1.56833,-1.58728e-06
18,12,1.5921,-1.93865e-06
19,12,1.61613,-2.25759e-06
20,12,1.64039,-2.54525e-06
21,12,1.6649,-2.8031e-06
22,12,1.68964,-3.03271e-06
23,12,1.71461,-3.23565e-06
24,12,1.7398,-3.41342e-06
25,12,1.7652,-3.56739e-06
26,12,1.79081,-3.69883e-06
27,12,1.81661,-3.80891e-06
28,12,1.84259,-3.89866e-06
29,12,1.86876,-3.96902e-06
30,12,1.8951,-4.02085e-06
31,12,1.92159,-4.05494e-06
32,12,1.94823,-4.07199e-06
33,12,1.97502,-4.0727e-06
34,12,2.00193,-4.0577e-06
35,12,2.02895,-4.0276e-06
36,12,2.05608,-3.983e-06
37,12,2.0833,-3.92449e-06
38,12,2.1106,-3.85266e-06
39,12,2.13796,-3.7681e-06
40,12,2.16538,-3.67142e-06
41,12,2.19283,-3.56325e-06
42,12,2.22031,-3.44425e-06
43,12,2.2478,-3.3151e-06
44,12,2.27529,-3.17652e-06
45,12,2.30275,-3.02927e-06
46,12,2.33017,-2.87414e-06
47,12,2.35755,-2.71198e-06
48,12,2.38485,-2.5437e-06
49,12,2.41207,-2.37024e-06
50,12,2.43919,-2.19262e-06
51,12,2.46619,-2.01191e-06
52,12,2.49305,-1.82925e-06
53,12,2.51976,-1.64583e-06
54,12,2.5463,-1.46295e-06
55,12,2.57264,-1.28196e-06
56,12,2.59878,-1.10427e-06
57,12,2.62469,-9.31415e-07
58,12,2.65036,-7.64973e-07
59,12,2.67577,-6.06618e-07
60,12,2.70089,-4.58103e-07
61,12,2.72571,-3.21255e-07
62,12,2.75021,-1.97973e-07
63,12,2.77438,-9.02175e-08
13,13,1.49909,-2.33003e-07
14,13,1.52217,-6.9542e-07
15,13,1.54552,-1.12519e-06
16,13,1.56914,-1.52313e-06
17,13,1.59303,-1.8915e-06
18,13,1.61717,-2.23069e-06
19,13,1.64158,-2.54094e-06
20,13,1.66623,-2.82281e-06
21,13,1.69112,-3.07711e-06
22,13,1.71625,-3.30485e-06
23,13,1.74161,-3.50709e-06
24,13,1.7672,-3.68492e-06
25,13,1.793,-3.83938e-06
26,13,1.81901,-3.97148e-06
27,13,1.84521,-4.08217e-06
28,13,1.87161,-4.17232e-06
29,13,1.89819,-4.24274e-06
30,13,1.92494,-4.29421e-06
31,13,1.95185,-4.32741e-06
32,13,1.97891,-4.34304e-06
33,13,2.00612,-4.34171e-06
34,13,2.03345,-4.32404e-06
35,13,2.0609,-4.29064e-06
36,13,2.08846,-4.24209e-06
37,13,2.11611,-4.17898e-06
38,13,2.14383,-4.10191e-06
39,13,2.17163,-4.01149e-06
40,13,2.19948,-3.90834e-06
41,13,2.22737,-3.79312e-06
42,13,2.25528,-3.66652e-06
43,13,2.2832,-3.52924e-06
44,13,2.31112,-3.38203e-06
45,13,2.33901,-3.2257e-06
46,13,2.36687,-3.06109e-06
47,13,2.39467,-2.88908e-06
48,13,2.42241,-2.71062e-06
49,13,2.45006,-2.52671e-06
50,13,2.4776,-2.33842e-06
51,13,2.50503,-2.14686e-06
52,13,2.53231,-1.95323e-06
53,13,2.55944,-1.75878e-06
54,13,2.5864,-1.56485e-06
55,13,2.61316,-1.37284e-06
56,13,2.63971,-1.18424e-06
57,13,2.66603,-1.00058e-06
58,13,2.6921,-8.23513e-07
59,13,2.7179,-6.5474e-07
60,13,2.74342,-4.96045e-07
61,13,2.76863,-3.4928e-07
62,13,2.79352,-2.1636e-07
63,13,2.81807,-9.92603e-08
12,14,1.49953,-2.14681e-07
13,14,1.52269,-6.51737e-07
14,14,1.54614,-1.07359e-06
15,14,1.56986,-1.47409e-06
16,14,1.59385,-1.85062e-06
17,14,1.61811,-2.20233e-06
18,14,1.64264,-2.52864e-06
19,14,1.66743,-2.82922e-06
20,14,1.69247,-3.10408e-06
21,14,1.71775,-3.3535e-06
22,14,1.74328,-3.57799e-06
23,14,1.76904,-3.77818e-06
24,14,1.79503,-3.95478e-06
25,14,1.82123,-4.10855e-06
26,14,1.84765,-4.24024e-06
27,14,1.87427,-4.35058e-06
28,14,1.90108,-4.4403e-06
29,14,1.92808,-4.51006e-06
30,14,1.95525,-4.56054e-06
31,14,1.98259,-4.59236e-06
32,14,2.01008,-4.60612e-06
33,14,2.03771,-4.60243e-06
34,14,2.06547,-4.58185e-06
35,14,2.09336,-4.54497e-06
36,14,2.12135,-4.49236e-06
37,14,2.14943,-4.42461e-06
38,14,2.1776,-4.34233e-06
39,14,2.20583,-4.24612e-06
40,14,2.23412,-4.13664e-06
41,14,2.26244,-4.01455e-06
42,14,2.29079,-3.88055e-06
43,14,2.31916,-3.7354e-06
44,14,2.34751,-3.57987e-06
45,14,2.37585,-3.41479e-06
46,14,2.40414,-3.24105e-06
47,14,2.43238,-3.05956e-06
48,14,2.46056,-2.87133e-06
49,14,2.48864,-2.67739e-06
50,14,2.51662,-2.47885e-06
51,14,2.54448,-2.27689e-06
52,14,2.57219,-2.07273e-06
53,14,2.59975,-1.8677e-06
54,14,2.62713,-1.66316e-06
55,14,2.65431,-1.46057e-06
56,14,2.68128,-1.26145e-06
57,14,2.70801,-1.0674e-06
58,14,2.73449,-8.80087e-07
59,14,2.7607,-7.01261e-07
60,14,2.78662,-5.32732e-07
61,14,2.81223,-3.76378e-07
62,14,2.83751,-2.34136e-07
63,14,2.86245,-1.07998e-07
10,15,1.47697,-1.31635e-08
11,15,1.49991,-2.84592e-07
12,15,1.52315,-6.71802e-07
13,15,1.54667,-1.06485e-06
14,15,1.57048,-1.45171e-06
15,15,1.59458,-1.82502e-06
16,15,1.61895,-2.18047e-06
17,15,1.64359,-2.51561e-06
18,15,1.66851,-2.8289e-06
19,15,1.69368,-3.11939e-06
20,15,1.71912,-3.38657e-06
21,15,1.7448,-3.63025e-06
22,15,1.77073,-3.85054e-06
23,15,1.7969,-4.04769e-06
24,15,1.82329,-4.2221e-06
25,15,1.84991,-4.37424e-06
26,15,1.87675,-4.50464e-06
27,15,1.90379,-4.61385e-06
28,15,1.93102,-4.70242e-06
29,15,1.95844,-4.77091e-06
30,15,1.98604,-4.81987e-06
31,15,2.01381,-4.84984e-06
32,15,2.04173,-4.86137e-06
33,15,2.0698,-4.85501e-06
34,15,2.098,-4.8313e-06
35,15,2.12632,-4.79078e-06
36,15,2.15475,-4.73403e-06
37,15,2.18328,-4.66161e-06
38,15,2.21189,-4.57414e-06
39,15,2.24057,-4.47222e-06
40,15,2.2693,-4.35652e-06
41,15,2.29807,-4.22772e-06
42,15,2.32687,-4.08655e-06
43,15,2.35568,-3.93377e-06
44,15,2.38448,-3.77019e-06
45,15,2.41326,-3.59667e-06
46,15,2.442,-3.41413e-06
47,15,2.47069,-3.22354e-06
48,15,2.4993,-3.02591e-06
49,15,2.52783,-2.82233e-06
50,15,2.55625,-2.61396e-06
51,15,2.58454,-2.402e-06
52,15,2.6127,-2.18775e-06
53,15,2.64069,-1.97254e-06
54,15,2.6685,-1.75781e-06
55,15,2.69611,-1.54505e-06
56,15,2.7235,-1.33583e-06
57,15,2.75066,-1.13178e-06
58,15,2.77756,-9.34608e-07
59,15,2.80418,-7.46096e-07
60,15,2.83051,-5.68087e-07
61,15,2.85652,-4.02486e-07
62,15,2.8822,-2.51256e-07
63,15,2.90752,-1.16408e-07
9,16,1.47722,-5.04957e-08
10,16,1.50022,-4.22037e-07
11,16,1.52353,-7.50543e-07
12,16,1.54713,-1.10252e-06
13,16,1.57103,-1.46298e-06
14,16,1.59521,-1.82166e-06
15,16,1.61969,-2.17152e-06
16,16,1.64444,-2.50783e-06
17,16,1.66948,-2.82744e-06
18,16,1.69478,-3.12819e-06
19,16,1.72036,-3.40867e-06
20,16,1.74619,-3.66794e-06
21,16,1.77228,-3.90544e-06
22,16,1.79862,-4.12094e-06
23,16,1.8252,-4.31437e-06
24,16,1.85201,-4.48588e-06
25,16,1.87905,-4.6357e-06
26,16,1.9063,-4.76414e-06
27,16,1.93377,-4.87158e-06
28,16,1.96143,-4.95843e-06
29,16,1.98928,-5.02512e-06
30,16,2.01732,-5.0721e-06
31,16,2.04552,-5.09984e-06
32,16,2.07388,-5.10883e-06
33,16,2.10239,-5.09955e-06
34,16,2.13104,-5.0725e-06
35,16,2.15981,-5.02822e-06
36,16,2.18868,-4.96724e-06
37,16,2.21766,-4.89013e-06
38,16,2.24672,-4.79749e-06
39,16,2.27585,-4.68994e-06
40,16,2.30503,-4.56814e-06
41,16,2.33426,-4.4328e-06
42,16,2.36351,-4.28465e-06
43,16,2.39277,-4.12447e-06
44,16,2.42203,-3.95311e-06
45,16,2.45126,-3.77145e-06
46,16,2.48046,-3.58044e-06
47,16,2.5096,-3.38107e-06
48,16,2.53866,-3.1744e-06
49,16,2.56764,-2.96157e-06
50,16,2.59651,-2.74375e-06
51,16,2.62525,-2.5222e-06
52,16,2.65384,-2.29825e-06
53,16,2.68227,-2.07328e-06
54,16,2.71052,-1.84877e-06
55,16,2.73856,-1.62625e-06
56,16,2.76639,-1.40732e-06
57,16,2.79397,-1.19365e-06
58,16,2.8213,-9.87e-07
59,16,2.84834,-7.89174e-07
60,16,2.87508,-6.02046e-07
61,16,2.9015,-4.27553e-07
62,16,2.92759,-2.67682e-07
63,16,2.95331,-1.24472e-07
6,17,1.43224,3.22659e-08
7,17,1.45467,4.84478e-09
8,17,1.47742,-2.96834e-07
9,17,1.50048,-5.46587e-07
10,17,1.52385,-8.5432e-07
11,17,1.54752,-1.17276e-06
12,17,1.57149,-1.50388e-06
13,17,1.59577,-1.84139e-06
14,17,1.62034,-2.17835e-06
15,17,1.64519,-2.50895e-06
16,17,1.67034,-2.82874e-06
17,17,1.69577,-3.13443e-06
18,17,1.72147,-3.42362e-06
19,17,1.74745,-3.69458e-06
20,17,1.77369,-3.94608e-06
21,17,1.80019,-4.17729e-06
22,17,1.82694,-4.38771e-06
23,17,1.85394,-4.57703e-06
24,17,1.88117,-4.74517e-06
25,17,1.90864,-4.89215e-06
26,17,1.93632,-5.01813e-06
27,17,1.96422,-5.12331e-06
28,17,1.99232,-5.20797e-06
29,17,2.02061,-5.27244e-06
30,17,2.04909,-5.31708e-06
31,17,2.07773,-5.34228e-06
32,17,2.10654,-5.34845e-06
33,17,2.1355,-5.33604e-06
34,17,2.1646,-5.3055e-06
35,17,2.19382,-5.25734e-06
36,17,2.22315,-5.19208e-06
37,17,2.25258,-5.11027e-06
38,17,2.2821,-5.0125e-06
39,17,2.31169,-4.8994e-06
40,17,2.34133,-4.77163e-06
41,17,2.37102,-4.62989e-06
42,17,2.40073,-4.47495e-06
43,17,2.43045,-4.30761e-06
44,17,2.46017,-4.12872e-06
45,17,2.48986,-3.9392e-06
46,17,2.51952,-3.74002e-06
47,17,2.54912,-3.53221e-06
48,17,2.57864,-3.31686e-06
49,17,2.60807,-3.09512e-06
50,17,2.63739,-2.86823e-06
51,17,2.66659,-2.63748e-06
52,17,2.69563,-2.40422e-06
53,17,2.72451,-2.16989e-06
54,17,2.7532,-1.93599e-06
55,17,2.78169,-1.70409e-06
56,17,2.80995,-1.47584e-06
57,17,2.83797,-1.25295e-06
58,17,2.86572,-1.0372e-06
59,17,2.89319,-8.30436e-07
60,17,2.92036,-6.34559e-07
61,17,2.9472,-4.51537e-07
62,17,2.97369,-2.83386e-07
63,17,2.99982,-1.32172e-07
1,18,1.34565,7.68328e-08
2,18,1.36683,1.20247e-07
3,18,1.38834,1.47732e-07
4,18,1.41017,1.03271e-07
5,18,1.43232,-5.90093e-08
6,18,1.45479,-2.77443e-07
7,18,1.47758,-4.54686e-07
8,18,1.50069,-7.01881e-07
9,18,1.52411,-9.65429e-07
10,18,1.54785,-1.25597e-06
11,18,1.57189,-1.56169e-06
12,18,1.59624,-1.87765e-06
13,18,1.6209,-2.19852e-06
14,18,1.64585,-2.51897e-06
15,18,1.6711,-2.83419e-06
16,18,1.69664,-3.14021e-06
17,18,1.72247,-3.43389e-06
18,18,1.74858,-3.71276e-06
19,18,1.77497,-3.97497e-06
20,18,1.80162,-4.21912e-06
21,18,1.82854,-4.44419e-06
22,18,1.85571,-4.64948e-06
23,18,1.88313,-4.83451e-06
24,18,1.9108,-4.999e-06
25,18,1.93869,-5.14282e-06
26,18,1.96681,-5.26597e-06
27,18,1.99515,-5.36853e-06
28,18,2.02369,-5.45067e-06
29,18,2.05243,-5.5126e-06
30,18,2.08135,-5.55461e-06
31,18,2.11045,-5.57701e-06
32,18,2.13972,-5.58015e-06
33,18,2.16913,-5.56443e-06
34,18,2.19868,-5.53028e-06
35,18,2.22836,-5.47817e-06
36,18,2.25816,-5.40859e-06
37,18,2.28806,-5.32209e-06
38,18,2.31804,-5.21924e-06
39,18,2.34809,-5.10066e-06
40,18,2.3782,-4.96704e-06
41,18,2.40836,-4.81907e-06
42,18,2.43854,-4.65754e-06
43,18,2.46873,-4.48325e-06
44,18,2.49891,-4.29708e-06
45,18,2.52907,-4.09998e-06
46,18,2.5592,-3.89293e-06
47,18,2.58926,-3.67699e-06
48,18,2.61925,-3.45329e-06
49,18,2.64914,-3.22301e-06
50,18,2.67893,-2.98741e-06
51,18,2.70858,-2.74782e-06
52,18,2.73808,-2.50563e-06
53,18,2.76742,-2.26232e-06
54,18,2.79656,-2.01942e-06
55,18,2.8255,-1.77854e-06
56,18,2.8542,-1.54136e-06
57,18,2.88266,-1.30963e-06
58,18,2.91085,-1.08516e-06
59,18,2.93875,-8.69831e-07
60,18,2.96635,-6.65579e-07
61,18,2.99361,-4.74401e-07
62,18,3.02052,-2.98343e-07
63,18,3.04706,-1.39498e-07
1,19,1.36684,-3.02741e-08
2,19,1.38836,-7.14989e-08
3,19,1.4102,-1.34183e-07
4,19,1.43238,-2.41465e-07
5,19,1.45488,-4.07074e-07
6,19,1.4777,-6.10862e-07
7,19,1.50085,-8.26076e-07
8,19,1.52432,-1.07169e-06
9,19,1.54811,-1.33771e-06
10,19,1.57222,-1.62217e-06
11,19,1.59664,-1.91949e-06
12,19,1.62138,-2.22493e-06
13,19,1.64642,-2.53392e-06
14,19,1.67177,-2.84204e-06
15,19,1.69742,-3.14528e-06
16,19,1.72336,-3.44014e-06
17,19,1.7496,-3.72372e-06
18,19,1.77612,-3.99365e-06
19,19,1.80292,-4.24805e-06
20,19,1.82999,-4.48545e-06
21,19,1.85733,-4.70472e-06
22,19,1.88493,-4.90502e-06
23,19,1.91279,-5.08574e-06
24,19,1.94089,-5.24647e-06
25,19,1.96922,-5.38695e-06
26,19,1.99779,-5.50705e-06
27,19,2.02657,-5.60675e-06
28,19,2.05556,-5.68611e-06
29,19,2.08475,-5.74526e-06
30,19,2.11413,-5.78442e-06
31,19,2.14369,-5.80382e-06
32,19,2.17341,-5.80378e-06
33,19,2.20329,-5.78463e-06
34,19,2.23331,-5.74678e-06
35,19,2.26346,-5.69066e-06
36,19,2.29372,-5.61675e-06
37,19,2.32409,-5.52558e-06
38,19,2.35454,-5.4177e-06
39,19,2.38507,-5.29376e-06
40,19,2.41565,-5.15441e-06
41,19,2.44628,-5.00037e-06
42,19,2.47694,-4.83243e-06
43,19,2.5076,-4.65142e-06
44,19,2.53826,-4.45822e-06
45,19,2.5689,-4.2538e-06
46,19,2.5995,-4.03917e-06
47,19,2.63003,-3.81542e-06
48,19,2.6605,-3.58369e-06
49,19,2.69086,-3.3452e-06
50,19,2.72111,-3.10125e-06
51,19,2.75123,-2.85319e-06
52,19,2.7812,-2.60245e-06
53,19,2.811,-2.35054e-06
54,19,2.8406,-2.09902e-06
55,19,2.86999,-1.84954e-06
56,19,2.89915,-1.60382e-06
57,19,2.92806,-1.36363e-06
58,19,2.95669,-1.13082e-06
59,19,2.98503,-9.07313e-07
60,19,3.01306,-6.95068e-07
61,19,3.04075,-4.96115e-07
62,19,3.06808,-3.1253e-07
63,19,3.09504,-1.46437e-07
1,20,1.38836,-1.1233e-07
2,20,1.41022,-2.26951e-07
3,20,1.43241,-3.55933e-07
4,20,1.45493,-5.11574e-07
5,20,1.47779,-6.99926e-07
6,20,1.50097,-9.15098e-07
7,20,1.52448,-1.14859e-06
8,20,1.54833,-1.40191e-06
9,20,1.57249,-1.67166e-06
10,20,1.59698,-1.95495e-06
11,20,1.62179,-2.24794e-06
12,20,1.64691,-2.54678e-06
13,20,1.67235,-2.84764e-06
14,20,1.6981,-3.14686e-06
15,20,1.72415,-3.44102e-06
16,20,1.7505,-3.72707e-06
17,20,1.77715,-4.00239e-06
18,20,1.80409,-4.26477e-06
19,20,1.83131,-4.51237e-06
20,20,1.85881,-4.74373e-06
21,20,1.88658,-4.95765e-06
22,20,1.91462,-5.15323e-06
23,20,1.94291,-5.32976e-06
24,20,1.97145,-5.48674e-06
25,20,2.00023,-5.62381e-06
26,20,2.02925,-5.74074e-06
27,20,2.05848,-5.83743e-06
28,20,2.08793,-5.91385e-06
29,20,2.11758,-5.97007e-06
30,20,2.14742,-6.00622e-06
31,20,2.17745,-6.0225e-06
32,20,2.20764,-6.01916e-06
33,20,2.23799,-5.9965e-06
34,20,2.26848,-5.95489e-06
35,20,2.2991,-5.89474e-06
36,20,2.32984,-5.81651e-06
37,20,2.36069,-5.7207e-06
38,20,2.39162,-5.60788e-06
39,20,2.42263,-5.47867e-06
40,20,2.4537,-5.33373e-06
41,20,2.48481,-5.17379e-06
42,20,2.51594,-4.99964e-06
43,20,2.54709,-4.81211e-06
44,20,2.57824,-4.61213e-06
45,20,2.60935,-4.40066e-06
46,20,2.64043,-4.17874e-06
47,20,2.67145,-3.94748e-06
48,20,2.70239,-3.70805e-06
49,20,2.73324,-3.46169e-06
50,20,2.76397,-3.20974e-06
51,20,2.79456,-2.95356e-06
52,20,2.825,-2.69464e-06
53,20,2.85526,-2.43449e-06
54,20,2.88533,-2.17473e-06
55,20,2.91519,-1.91704e-06
56,20,2.94481,-1.66315e-06
57,20,2.97417,-1.4149e-06
58,20,3.00325,-1.17414e-06
59,20,3.03204,-9.4284e-07
60,20,3.06051,-7.22989e-07
61,20,3.08863,-5.16648e-07
62,20,3.1164,-3.25927e-07
63,20,3.14378,-1.52979e-07
1,21,1.41022,-1.77773e-07
2,21,1.43243,-3.52972e-07
3,21,1.45497,-5.3521e-07
4,21,1.47784,-7.32412e-07
5,21,1.50106,-9.4866e-07
6,21,1.52461,-1.18297e-06
7,21,1.54849,-1.43252e-06
8,21,1.57271,-1.6962e-06
9,21,1.59725,-1.97189e-06
10,21,1.62213,-2.25712e-06
11,21,1.64733,-2.54898e-06
12,21,1.67285,-2.84437e-06
13,21,1.69868,-3.14014e-06
14,21,1.72484,-3.43324e-06
15,21,1.7513,-3.72076e-06
16,21,1.77807,-4.00007e-06
17,21,1.80513,-4.26881e-06
18,21,1.8325,-4.52496e-06
19,21,1.86015,-4.76677e-06
20,21,1.88808,-4.99283e-06
21,21,1.91629,-5.20193e-06
22,21,1.94477,-5.39314e-06
23,21,1.97351,-5.5657e-06
24,21,2.0025,-5.71903e-06
25,21,2.03173,-5.85271e-06
26,21,2.0612,-5.96645e-06
27,21,2.0909,-6.06006e-06
28,21,2.12081,-6.13346e-06
29,21,2.15093,-6.18665e-06
30,21,2.18124,-6.2197e-06
31,21,2.21174,-6.23277e-06
32,21,2.2424,-6.22606e-06
33,21,2.27323,-6.19985e-06
34,21,2.3042,-6.15446e-06
35,21,2.33531,-6.09029e-06
36,21,2.36653,-6.00776e-06
37,21,2.39786,-5.90738e-06
38,21,2.42928,-5.78971e-06
39,21,2.46078,-5.65534e-06
40,21,2.49234,-5.50496e-06
41,21,2.52394,-5.33929e-06
42,21,2.55556,-5.15912e-06
43,21,2.5872,-4.96531e-06
44,21,2.61884,-4.75879e-06
45,21,2.65045,-4.54053e-06
46,21,2.68201,-4.31161e-06
47,21,2.71352,-4.07314e-06
48,21,2.74495,-3.82632e-06
49,21,2.77628,-3.57243e-06
50,21,2.80749,-3.31282e-06
51,21,2.83857,-3.04889e-06
52,21,2.86949,-2.78214e-06
53,21,2.90023,-2.51414e-06
54,21,2.93077,-2.24652e-06
55,21,2.96109,-1.98099e-06
56,21,2.99118,-1.71933e-06
57,21,3.021,-1.46339e-06
58,21,3.05055,-1.21508e-06
59,21,3.07979,-9.76371e-07
60,21,3.1087,-7.49308e-07
61,21,3.13727,-5.35976e-07
62,21,3.16548,-3.38516e-07
63,21,3.19329,-1.59115e-07
1,22,1.43243,-2.31243e-07
2,22,1.45498,-4.5665e-07
3,22,1.47788,-6.83459e-07
4,22,1.50112,-9.17383e-07
5,22,1.5247,-1.16176e-06
6,22,1.54862,-1.4173e-06
7,22,1.57288,-1.68326e-06
8,22,1.59747,-1.95869e-06
9,22,1.62241,-2.24206e-06
10,22,1.64767,-2.53145e-06
11,22,1.67327,-2.82458e-06
12,22,1.69919,-3.11899e-06
13,22,1.72543,-3.41209e-06
14,22,1.752,-3.70133e-06
15,22,1.77888,-3.98426e-06
16,22,1.80607,-4.25858e-06
17,22,1.83356,-4.52223e-06
18,22,1.86135,-4.77336e-06
19,22,1.88944,-5.01036e-06
20,22,1.91781,-5.23186e-06
21,22,1.94647,-5.4367e-06
22,22,1.97539,-5.62394e-06
23,22,2.00458,-5.79279e-06
24,22,2.03403,-5.94265e-06
25,22,2.06373,-6.07304e-06
26,22,2.09366,-6.18362e-06
27,22,2.12383,-6.27416e-06
28,22,2.15421,-6.3445e-06
29,22,2.1848,-6.39462e-06
30,22,2.21559,-6.42453e-06
31,22,2.24657,-6.43435e-06
32,22,2.27771,-6.42425e-06
33,22,2.30903,-6.39447e-06
34,22,2.34049,-6.34531e-06
35,22,2.37208,-6.27714e-06
36,22,2.4038,-6.19038e-06
37,22,2.43562,-6.08551e-06
38,22,2.46754,-5.96308e-06
39,22,2.49953,-5.82369e-06
40,22,2.53158,-5.66802e-06
41,22,2.56368,-5.4968e-06
42,22,2.59581,-5.31082e-06
43,22,2.62795,-5.11095e-06
44,22,2.66008,-4.89813e-06
45,22,2.69218,-4.67336e-06
46,22,2.72425,-4.43772e-06
47,22,2.75625,-4.19234e-06
48,22,2.78818,-3.93847e-06
49,22,2.82,-3.67737e-06
50,22,2.8517,-3.41044e-06
51,22,2.88327,-3.13911e-06
52,22,2.91467,-2.86491e-06
53,22,2.9459,-2.58942e-06
54,22,2.97692,-2.31431e-06
55,22,3.00772,-2.04133e-06
56,22,3.03828,-1.77228e-06
57,22,3.06858,-1.50905e-06
58,22,3.09859,-1.25358e-06
59,22,3.12829,-1.00787e-06
60,22,3.15766,-7.73991e-07
61,22,3.18668,-5.54071e-07
62,22,3.21532,-3.50279e-07
63,22,3.24358,-1.64836e-07
1,23,1.45499,-2.7577e-07
2,23,1.4779,-5.43379e-07
3,23,1.50115,-8.08279e-07
4,23,1.52475,-1.07482e-06
5,23,1.54871,-1.34584e-06
6,23,1.573,-1.62259e-06
7,23,1.59765,-1.90519e-06
8,23,1.62263,-2.19312e-06
9,23,1.64796,-2.48537e-06
10,23,1.67362,-2.78047e-06
11,23,1.69962,-3.07666e-06
12,23,1.72595,-3.37196e-06
13,23,1.75261,-3.66428e-06
14,23,1.77959,-3.95148e-06
15,23,1.80689,-4.23149e-06
16,23,1.83451,-4.50234e-06
17,23,1.86244,-4.76218e-06
18,23,1.89067,-5.00937e-06
19,23,1.91919,-5.24244e-06
20,23,1.94801,-5.46009e-06
21,23,1.97712,-5.66123e-06
22,23,2.0065,-5.84491e-06
23,23,2.03615,-6.01037e-06
24,23,2.06606,-6.15697e-06
25,23,2.09623,-6.28421e-06
26,23,2.12663,-6.39172e-06
27,23,2.15727,-6.47923e-06
28,23,2.18813,-6.54654e-06
29,23,2.21921,-6.59359e-06
30,23,2.25048,-6.62037e-06
31,23,2.28194,-6.62694e-06
32,23,2.31358,-6.61346e-06
33,23,2.34539,-6.58013e-06
34,23,2.37734,-6.52724e-06
35,23,2.40944,-6.45512e-06
36,23,2.44165,-6.3642e-06
37,23,2.47398,-6.25494e-06
38,23,2.5064,-6.12787e-06
39,23,2.53889,-5.98361e-06
40,23,2.57145,-5.82282e-06
41,23,2.60405,-5.64623e-06
42,23,2.63669,-5.45465e-06
43,23,2.66933,-5.24896e-06
44,23,2.70197,-5.03009e-06
45,23,2.73458,-4.79908e-06
46,23,2.76715,-4.557e-06
47,23,2.79966,-4.30503e-06
48,23,2.83208,-4.0444e-06
49,23,2.86441,-3.77644e-06
50,23,2.89661,-3.50254e-06
51,23,2.92867,-3.22417e-06
52,23,2.96057,-2.94287e-06
53,23,2.99229,-2.66027e-06
54,23,3.0238,-2.37806e-06
55,23,3.05509,-2.09801e-06
56,23,3.08613,-1.82197e-06
57,23,3.1169,-1.55184e-06
58,23,3.14738,-1.2896e-06
59,23,3.17755,-1.03729e-06
60,23,3.20738,-7.97004e-07
61,23,3.23686,-5.70906e-07
62,23,3.26596,-3.61198e-07
63,23,3.29465,-1.70132e-07
1,24,1.4779,-3.13451e-07
2,24,1.50117,-6.17025e-07
3,24,1.52479,-9.14883e-07
4,24,1.54877,-1.21043e-06
5,24,1.57309,-1.50606e-06
6,24,1.59777,-1.80312e-06
7,24,1.6228,-2.1021e-06
8,24,1.64818,-2.40283e-06
9,24,1.67391,-2.70466e-06
10,24,1.69997,-3.00651e-06
11,24,1.72638,-3.30702e-06
12,24,1.75313,-3.60463e-06
13,24,1.78021,-3.89761e-06
14,24,1.80761,-4.1842e-06
15,24,1.83535,-4.46265e-06
16,24,1.8634,-4.73124e-06
17,24,1.89176,-4.98838e-06
18,24,1.92044,-5.23258e-06
19,24,1.94942,-5.46251e-06
20,24,1.97869,-5.67697e-06
21,24,2.00825,-5.87492e-06
22,24,2.0381,-6.05546e-06
23,24,2.06822,-6.21784e-06
24,24,2.0986,-6.36142e-06
25,24,2.12924,-6.48569e-06
26,24,2.16012,-6.59025e-06
27,24,2.19124,-6.67481e-06
28,24,2.22259,-6.73916e-06
29,24,2.25415,-6.78318e-06
30,24,2.28592,-6.80686e-06
31,24,2.31788,-6.81022e-06
32,24,2.35002,-6.79339e-06
33,24,2.38232,-6.75656e-06
34,24,2.41478,-6.7e-06
35,24,2.44738,-6.62402e-06
36,24,2.4801,-6.52903e-06
37,24,2.51294,-6.41549e-06
38,24,2.54587,-6.28393e-06
39,24,2.57887,-6.13494e-06
40,24,2.61194,-5.96921e-06
41,24,2.64506,-5.78745e-06
42,24,2.67821,-5.59049e-06
43,24,2.71137,-5.37921e-06
44,24,2.74452,-5.15456e-06
45,24,2.77764,-4.91758e-06
46,24,2.81073,-4.66936e-06
47,24,2.84374,-4.4111e-06
48,24,2.87668,-4.14405e-06
49,24,2.90951,-3.86956e-06
50,24,2.94223,-3.58903e-06
51,24,2.97479,-3.30397e-06
52,24,3.00719,-3.01595e-06
53,24,3.03941,-2.72661e-06
54,24,3.07142,-2.43768e-06
55,24,3.1032,-2.15096e-06
56,24,3.13473,-1.86831e-06
57,24,3.16599,-1.59169e-06
58,24,3.19695,-1.32309e-06
59,24,3.22759,-1.06459e-06
60,24,3.25789,-8.18313e-07
61,24,3.28783,-5.86457e-07
62,24,3.31739,-3.71256e-07
63,24,3.34654,-1.74995e-07
1,25,1.50118,-3.45762e-07
2,25,1.52481,-6.80345e-07
3,25,1.5488,-1.00697e-06
4,25,1.57316,-1.32833e-06
5,25,1.59787,-1.64643e-06
6,25,1.62294,-1.96254e-06
7,25,1.64836,-2.27729e-06
8,25,1.67414,-2.59071e-06
9,25,1.70027,-2.90242e-06
10,25,1.72674,-3.21164e-06
11,25,1.75357,-3.51734e-06
12,25,1.78073,-3.81824e-06
13,25,1.80824,-4.11298e-06
14,25,1.83608,-4.40006e-06
15,25,1.86425,-4.678e-06
16,25,1.89274,-4.94535e-06
17,25,1.92155,-5.20069e-06
18,25,1.95068,-5.4427e-06
19,25,1.98012,-5.67018e-06
20,25,2.00985,-5.88204e-06
21,25,2.03988,-6.07729e-06
22,25,2.07019,-6.25508e-06
23,25,2.10079,-6.41469e-06
24,25,2.13165,-6.5555e-06
25,25,2.16277,-6.67698e-06
26,25,2.19414,-6.77874e-06
27,25,2.22575,-6.86047e-06
28,25,2.25759,-6.92193e-06
29,25,2.28965,-6.96301e-06
30,25,2.32192,-6.98364e-06
31,25,2.35438,-6.98385e-06
32,25,2.38702,-6.96375e-06
33,25,2.41984,-6.9235e-06
34,25,2.45281,-6.86334e-06
35,25,2.48592,-6.7836e-06
36,25,2.51916,-6.68466e-06
37,25,2.55251,-6.56697e-06
38,25,2.58596,-6.43106e-06
39,25,2.61948,-6.27753e-06
40,25,2.65308,-6.10703e-06
41,25,2.68672,-5.92032e-06
42,25,2.72038,-5.71821e-06
43,25,2.75406,-5.50159e-06
44,25,2.78774,-5.27142e-06
45,25,2.82138,-5.02874e-06
46,25,2.85499,-4.77469e-06
47,25,2.88853,-4.51045e-06
48,25,2.92198,-4.23731e-06
49,25,2.95533,-3.95662e-06
50,25,2.98856,-3.66982e-06
51,25,3.02164,-3.37844e-06
52,25,3.05455,-3.08406e-06
53,25,3.08727,-2.78836e-06
54,25,3.11979,-2.4931e-06
55,25,3.15207,-2.2001e-06
56,25,3.18409,-1.91126e-06
57,25,3.21584,-1.62854e-06
58,25,3.24729,-1.354e-06
59,25,3.27842,-1.08972e-06
60,25,3.3092,-8.37882e-07
61,25,3.33961,-6.00695e-07
62,25,3.36963,-3.80433e-07
63,25,3.39924,-1.79414e-07
1,26,1.52482,-3.73766e-07
2,26,1.54882,-7.35334e-07
3,26,1.57319,-1.08722e-06
4,26,1.59793,-1.43158e-06
5,26,1.62303,-1.77007e-06
6,26,1.64849,-2.10384e-06
7,26,1.67432,-2.4335e-06
8,26,1.7005,-2.75924e-06
9,26,1.72704,-3.08083e-06
10,26,1.75394,-3.39772e-06
11,26,1.78118,-3.70911e-06
12,26,1.80878,-4.014e-06
13,26,1.83672,-4.31125e-06
14,26,1.86499,-4.59964e-06
15,26,1.89361,-4.87791e-06
16,26,1.92255,-5.1448e-06
17,26,1.95181,-5.39907e-06
18,26,1.9814,-5.63956e-06
19,26,2.0113,-5.86519e-06
20,26,2.0415,-6.07494e-06
21,26,2.072,-6.26793e-06
22,26,2.10279,-6.44334e-06
23,26,2.13387,-6.60047e-06
24,26,2.16521,-6.73874e-06
25,26,2.19683,-6.85763e-06
26,26,2.22869,-6.95675e-06
27,26,2.2608,-7.03577e-06
28,26,2.29314,-7.09446e-06
29,26,2.32571,-7.13268e-06
30,26,2.35848,-7.15036e-06
31,26,2.39146,-7.14751e-06
32,26,2.42461,-7.12421e-06
33,26,2.45795,-7.08063e-06
34,26,2.49143,-7.01699e-06
35,26,2.52507,-6.9336e-06
36,26,2.55883,-6.83084e-06
37,26,2.59271,-6.70915e-06
38,26,2.62668,-6.56906e-06
39,26,2.66074,-6.41116e-06
40,26,2.69486,-6.23611e-06
41,26,2.72903,-6.04466e-06
42,26,2.76322,-5.83764e-06
43,26,2.79743,-5.61593e-06
44,26,2.83164,-5.38051e-06
45,26,2.86582,-5.13244e-06
46,26,2.89995,-4.87285e-06
47,26,2.93402,-4.60295e-06
48,26,2.968,-4.32405e-06
49,26,3.00187,-4.03751e-06
50,26,3.03562,-3.7448e-06
51,26,3.06922,-3.44746e-06
52,26,3.10265,-3.14711e-06
53,26,3.13589,-2.84545e-06
54,26,3.16892,-2.54425e-06
55,26,3.20171,-2.24537e-06
56,26,3.23424,-1.95073e-06
57,26,3.26648,-1.66235e-06
58,26,3.29843,-1.38227e-06
59,26,3.33004,-1.11265e-06
60,26,3.36131,-8.55674e-07
61,26,3.3922,-6.13592e-07
62,26,3.4227,-3.8871e-07
63,26,3.45277,-1.83381e-07
1,27,1.54883,-3.98238e-07
2,27,1.57321,-7.83455e-07
3,27,1.59797,-1.15763e-06
4,27,1.62309,-1.5225e-06
5,27,1.64859,-1.87944e-06
6,27,1.67445,-2.22942e-06
7,27,1.70068,-2.57304e-06
8,27,1.72728,-2.91052e-06
9,27,1.75424,-3.24175e-06
10,27,1.78156,-3.56635e-06
11,27,1.80923,-3.88368e-06
12,27,1.83726,-4.19297e-06
13,27,1.86564,-4.49326e-06
14,27,1.89436,-4.78354e-06
15,27,1.92343,-5.06274e-06
16,27,1.95282,-5.32977e-06
17,27,1.98255,-5.58356e-06
18,27,2.0126,-5.82307e-06
19,27,2.04297,-6.04732e-06
20,27,2.07365,-6.25541e-06
21,27,2.10463,-6.44649e-06
22,27,2.13591,-6.61984e-06
23,27,2.16747,-6.77477e-06
24,27,2.19931,-6.91073e-06
25,27,2.23142,-7.02722e-06
26,27,2.26379,-7.12386e-06
27,27,2.2964,-7.20031e-06
28,27,2.32925,-7.25635e-06
29,27,2.36233,-7.29182e-06
30,27,2.39562,-7.30665e-06
31,27,2.42912,-7.30083e-06
32,27,2.4628,-7.27445e-06
33,27,2.49665,-7.22764e-06
34,27,2.53067,-7.16064e-06
35,27,2.56483,-7.07374e-06
36,27,2.59913,-6.96731e-06
37,27,2.63353,-6.84178e-06
38,27,2.66804,-6.69769e-06
39,27,2.70264,-6.53561e-06
40,27,2.73729,-6.35623e-06
41,27,2.772,-6.16028e-06
42,27,2.80674,-5.94858e-06
43,27,2.84149,-5.72206e-06
44,27,2.87623,-5.48167e-06
45,27,2.91095,-5.2285e-06
46,27,2.94562,-4.96369e-06
47,27,2.98022,-4.68846e-06
48,27,3.01474,-4.40414e-06
49,27,3.04915,-4.11211e-06
50,27,3.08343,-3.81385e-06
51,27,3.11756,-3.51093e-06
52,27,3.15151,-3.20499e-06
53,27,3.18528,-2.89775e-06
54,27,3.21882,-2.59102e-06
55,27,3.25213,-2.28667e-06
56,27,3.28517,-1.98666e-06
57,27,3.31792,-1.69303e-06
58,27,3.35037,-1.40786e-06
59,27,3.38249,-1.13332e-06
60,27,3.41424,-8.71648e-07
61,27,3.44562,-6.25117e-07
62,27,3.47659,-3.96067e-07
63,27,3.50714,-1.86885e-07
1,28,1.57322,-4.19755e-07
2,28,1.59799,-8.25802e-07
3,28,1.62313,-1.21972e-06
4,28,1.64865,-1.60289e-06
5,28,1.67455,-1.97646e-06
6,28,1.70082,-2.34124e-06
7,28,1.72747,-2.69778e-06
8,28,1.75448,-3.04631e-06
9,28,1.78186,-3.38678e-06
10,28,1.80961,-3.71892e-06
11,28,1.83772,-4.04225e-06
12,28,1.86619,-4.35612e-06
13,28,1.89502,-4.65976e-06
14,28,1.92419,-4.95231e-06
15,28,1.95371,-5.23287e-06
16,28,1.98358,-5.50048e-06
17,28,2.01377,-5.75422e-06
18,28,2.0443,-5.99316e-06
19,28,2.07514,-6.21642e-06
20,28,2.10631,-6.42319e-06
21,28,2.13777,-6.6127e-06
22,28,2.16954,-6.78425e-06
23,28,2.2016,-6.93722e-06
24,28,2.23395,-7.07108e-06
25,28,2.26656,-7.18535e-06
26,28,2.29944,-7.27965e-06
27,28,2.33257,-7.35368e-06
28,28,2.36593,-7.40719e-06
29,28,2.39953,-7.44003e-06
30,28,2.43335,-7.45212e-06
31,28,2.46737,-7.44346e-06
32,28,2.50158,-7.41411e-06
33,28,2.53597,-7.36421e-06
34,28,2.57052,-7.29398e-06
35,28,2.60522,-7.20372e-06
36,28,2.64006,-7.09377e-06
37,28,2.67501,-6.96459e-06
38,28,2.71006,-6.81668e-06
39,28,2.7452,-6.65065e-06
40,28,2.7804,-6.46715e-06
41,28,2.81565,-6.26694e-06
42,28,2.85094,-6.05084e-06
43,28,2.88623,-5.81977e-06
44,28,2.92152,-5.57472e-06
45,28,2.95679,-5.31675e-06
46,28,2.992,-5.04704e-06
47,28,3.02715,-4.76683e-06
48,28,3.06221,-4.47743e-06
49,28,3.09716,-4.18027e-06
50,28,3.13198,-3.87684e-06
51,28,3.16665,-3.56873e-06
52,28,3.20114,-3.25759e-06
53,28,3.23544,-2.94518e-06
54,28,3.26951,-2.63332e-06
55,28,3.30334,-2.32392e-06
56,28,3.3369,-2.01897e-06
57,28,3.37017,-1.72051e-06
58,28,3.40313,-1.43069e-06
59,28,3.43575,-1.15168e-06
60,28,3.46801,-8.85762e-07
61,28,3.49988,-6.35238e-07
62,28,3.53134,-4.02483e-07
63,28,3.56237,-1.89916e-07
1,29,1.59799,-4.3875e-07
2,29,1.62315,-8.63205e-07
3,29,1.64869,-1.27463e-06
4,29,1.67462,-1.67413e-06
5,29,1.70092,-2.06265e-06
6,29,1.72761,-2.44088e-06
7,29,1.75467,-2.80928e-06
8,29,1.78211,-3.16808e-06
9,29,1.80992,-3.51726e-06
10,29,1.83811,-3.85664e-06
11,29,1.86666,-4.18583e-06
12,29,1.89558,-4.5043e-06
13,29,1.92486,-4.81142e-06
14,29,1.9545,-5.10646e-06
15,29,1.98448,-5.38863e-06
16,29,2.01481,-5.65713e-06
17,29,2.04548,-5.91112e-06
18,29,2.07649,-6.1498e-06
19,29,2.10782,-6.37237e-06
20,29,2.13947,-6.5781e-06
21,29,2.17144,-6.76627e-06
22,29,2.20371,-6.93626e-06
23,29,2.23627,-7.08747e-06
24,29,2.26913,-7.21941e-06
25,29,2.30225,-7.33163e-06
26,29,2.33565,-7.42375e-06
27,29,2.3693,-7.49548e-06
28,29,2.40319,-7.54659e-06
29,29,2.43732,-7.57692e-06
30,29,2.47167,-7.5864e-06
31,29,2.50622,-7.57502e-06
32,29,2.54097,-7.54283e-06
33,29,2.5759,-7.48998e-06
34,29,2.611,-7.41668e-06
35,29,2.64625,-7.32321e-06
36,29,2.68163,-7.20993e-06
37,29,2.71713,-7.07728e-06
38,29,2.75274,-6.92577e-06
39,29,2.78843,-6.75599e-06
40,29,2.82419,-6.56862e-06
41,29,2.85999,-6.3644e-06
42,29,2.89583,-6.14417e-06
43,29,2.93169,-5.90885e-06
44,29,2.96753,-5.65943e-06
45,29,3.00335,-5.39699e-06
46,29,3.03912,-5.12272e-06
47,29,3.07482,-4.83786e-06
48,29,3.11043,-4.54375e-06
49,29,3.14594,-4.24183e-06
50,29,3.1813,-3.93362e-06
51,29,3.21652,-3.6207e-06
52,29,3.25155,-3.30477e-06
53,29,3.28639,-2.9876e-06
54,29,3.321,-2.67104e-06
55,29,3.35536,-2.35702e-06
56,29,3.38945,-2.04756e-06
57,29,3.42325,-1.74473e-06
58,29,3.45672,-1.4507e-06
59,29,3.48986,-1.16768e-06
60,29,3.52262,-8.97973e-07
61,29,3.555,-6.43923e-07
62,29,3.58695,-4.07935e-07
63,29,3.61847,-1.92461e-07
1,30,1.62316,-4.55554e-07
2,30,1.64871,-8.96299e-07
3,30,1.67465,-1.32325e-06
4,30,1.70099,-1.7373e-06
5,30,1.72771,-2.13922e-06
6,30,1.75481,-2.52958e-06
7,30,1.7823,-2.90878e-06
8,30,1.81017,-3.27702e-06
9,30,1.83843,-3.63431e-06
10,30,1.86706,-3.98051e-06
11,30,1.89606,-4.3153e-06
12,30,1.92543,-4.63825e-06
13,30,1.95517,-4.94883e-06
14,30,1.98527,-5.24642e-06
15,30,2.01573,-5.53034e-06
16,30,2.04654,-5.79989e-06
17,30,2.0777,-6.05433e-06
18,30,2.10919,-6.29295e-06
19,30,2.14102,-6.51505e-06
20,30,2.17317,-6.71993e-06
21,30,2.20564,-6.90697e-06
22,30,2.23841,-7.07557e-06
23,30,2.27149,-7.2252e-06
24,30,2.30486,-7.35537e-06
25,30,2.33851,-7.46567e-06
26,30,2.37243,-7.55575e-06
27,30,2.40661,-7.62532e-06
28,30,2.44104,-7.67415e-06
29,30,2.4757,-7.70211e-06
30,30,2.51059,-7.7091e-06
31,30,2.54569,-7.69513e-06
32,30,2.58099,-7.66024e-06
33,30,2.61647,-7.60459e-06
34,30,2.65212,-7.52837e-06
35,30,2.68792,-7.43187e-06
36,30,2.72386,-7.31544e-06
37,30,2.75992,-7.17953e-06
38,30,2.79609,-7.02463e-06
39,30,2.83234,-6.85135e-06
40,30,2.86866,-6.66036e-06
41,30,2.90503,-6.45241e-06
42,30,2.94144,-6.22833e-06
43,30,2.97785,-5.98905e-06
44,30,3.01426,-5.73558e-06
45,30,3.05064,-5.46901e-06
46,30,3.08698,-5.19051e-06
47,30,3.12324,-4.90137e-06
48,30,3.15942,-4.60293e-06
49,30,3.19548,-4.29663e-06
50,30,3.2314,-3.98402e-06
51,30,3.26717,-3.66671e-06
52,30,3.30276,-3.34641e-06
53,30,3.33814,-3.0249e-06
54,30,3.3733,-2.70407e-06
55,30,3.4082,-2.38587e-06
56,30,3.44283,-2.07235e-06
57,30,3.47716,-1.7656e-06
58,30,3.51116,-1.46781e-06
59,30,3.54481,-1.18125e-06
60,30,3.5781,-9.08232e-07
61,30,3.61098,-6.51136e-07
62,30,3.64344,-4.12399e-07
63,30,3.67545,-1.9451e-07
1,31,1.64872,-4.70422e-07
2,31,1.67468,-9.25575e-07
3,31,1.70103,-1.36627e-06
4,31,1.72777,-1.79325e-06
5,31,1.75491,-2.20711e-06
6,31,1.78245,-2.60835e-06
7,31,1.81037,-2.9973e-06
8,31,1.83868,-3.37412e-06
9,31,1.86738,-3.73885e-06
10,31,1.89646,-4.09135e-06
11,31,1.92592,-4.43138e-06
12,31,1.95575,-4.75858e-06
13,31,1.98596,-5.07248e-06
14,31,2.01654,-5.37257e-06
15,31,2.04748,-5.65826e-06
16,31,2.07877,-5.92892e-06
17,31,2.11041,-6.18391e-06
18,31,2.1424,-6.42259e-06
19,31,2.17473,-6.64433e-06
20,31,2.20739,-6.84851e-06
21,31,2.24037,-7.03455e-06
22,31,2.27366,-7.2019e-06
23,31,2.30726,-7.35007e-06
24,31,2.34115,-7.4786e-06
25,31,2.37533,-7.58711e-06
26,31,2.40979,-7.67526e-06
27,31,2.44451,-7.74279e-06
28,31,2.47948,-7.78947e-06
29,31,2.51469,-7.81516e-06
30,31,2.55013,-7.8198e-06
31,31,2.58578,-7.80338e-06
32,31,2.62163,-7.76595e-06
33,31,2.65767,-7.70765e-06
34,31,2.69388,-7.62868e-06
35,31,2.73025,-7.52934e-06
36,31,2.76675,-7.40996e-06
37,31,2.80338,-7.271e-06
38,31,2.84012,-7.11295e-06
39,31,2.87694,-6.93641e-06
40,31,2.91383,-6.74206e-06
41,31,2.95078,-6.53066e-06
42,31,2.98776,-6.30303e-06
43,31,3.02475,-6.06011e-06
44,31,3.06173,-5.80292e-06
45,31,3.09869,-5.53255e-06
46,31,3.13559,-5.2502e-06
47,31,3.17243,-4.95714e-06
48,31,3.20917,-4.65475e-06
49,31,3.2458,-4.34448e-06
50,31,3.28229,-4.02788e-06
51,31,3.31862,-3.70659e-06
52,31,3.35477,-3.38234e-06
53,31,3.39071,-3.05694e-06
54,31,3.42642,-2.73229e-06
55,31,3.46187,-2.41036e-06
56,31,3.49704,-2.09323e-06
57,31,3.53191,-1.78302e-06
58,31,3.56645,-1.48197e-06
59,31,3.60064,-1.19234e-06
60,31,3.63444,-9.1649e-07
61,31,3.66784,-6.56838e-07
62,31,3.70082,-4.1585e-07
63,31,3.73333,-1.96049e-07
1,32,1.67468,-4.83551e-07
2,32,1.70105,-9.51413e-07
3,32,1.72781,-1.40424e-06
4,32,1.75498,-1.84263e-06
5,32,1.78255,-2.26709e-06
6,32,1.81051,-2.67801e-06
7,32,1.83888,-3.07566e-06
8,32,1.86763,-3.46019e-06
9,32,1.89678,-3.83162e-06
10,32,1.92632,-4.18985e-06
11,32,1.95625,-4.53468e-06
12,32,1.98655,-4.86579e-06
13,32,2.01724,-5.18279e-06
14,32,2.04829,-5.48523e-06
15,32,2.07972,-5.77259e-06
16,32,2.11151,-6.04432e-06
17,32,2.14365,-6.29987e-06
18,32,2.17614,-6.53865e-06
19,32,2.20898,-6.7601e-06
20,32,2.24215,-6.96364e-06
21,32,2.27565,-7.14876e-06
22,32,2.30947,-7.31495e-06
23,32,2.34359,-7.46175e-06
24,32,2.37802,-7.58875e-06
25,32,2.41274,-7.69556e-06
26,32,2.44774,-7.78189e-06
27,32,2.483,-7.84748e-06
28,32,2.51852,-7.89212e-06
29,32,2.55429,-7.91568e-06
30,32,2.59029,-7.91809e-06
31,32,2.6265,-7.89935e-06
32,32,2.66292,-7.85953e-06
33,32,2.69952,-7.79874e-06
34,32,2.73631,-7.71722e-06
35,32,2.77324,-7.61522e-06
36,32,2.81032,-7.49311e-06
37,32,2.84753,-7.35132e-06
38,32,2.88484,-7.19037e-06
39,32,2.92225,-7.01084e-06
40,32,2.95972,-6.81341e-06
41,32,2.99725,-6.59884e-06
42,32,3.03481,-6.36798e-06
43,32,3.07238,-6.12175e-06
44,32,3.10995,-5.86118e-06
45,32,3.14748,-5.58737e-06
46,32,3.18497,-5.30153e-06
47,32,3.22239,-5.00495e-06
48,32,3.25971,-4.699e-06
49,32,3.29691,-4.38517e-06
50,32,3.33398,-4.06501e-06
51,32,3.37088,-3.74018e-06
52,32,3.4076,-3.41242e-06
53,32,3.4441,-3.08357e-06
54,32,3.48038,-2.75555e-06
55,32,3.51639,-2.43037e-06
56,32,3.55211,-2.1101e-06
57,32,3.58753,-1.79692e-06
58,32,3.62262,-1.49307e-06
59,32,3.65734,-1.20087e-06
60,32,3.69168,-9.22696e-07
61,32,3.7256,-6.60992e-07
62,32,3.7591,-4.18263e-07
63,32,3.79212,-1.97065e-07
1,33,1.70106,-4.95092e-07
2,33,1.72784,-9.74107e-07
3,33,1.75502,-1.43758e-06
4,33,1.78262,-1.88598e-06
5,33,1.81062,-2.31974e-06
6,33,1.83903,-2.73917e-06
7,33,1.86784,-3.1445e-06
8,33,1.89705,-3.53585e-06
9,33,1.92665,-3.91323e-06
10,33,1.95666,-4.27657e-06
11,33,1.98705,-4.62567e-06
12,33,2.01784,-4.96029e-06
13,33,2.049,-5.28007e-06
14,33,2.08055,-5.58461e-06
15,33,2.11247,-5.87348e-06
16,33,2.14476,-6.14618e-06
17,33,2.17741,-6.40221e-06
18,33,2.21041,-6.64105e-06
19,33,2.24377,-6.86219e-06
20,33,2.27746,-7.06512e-06
21,33,2.31149,-7.24935e-06
22,33,2.34584,-7.41442e-06
23,33,2.3805,-7.55991e-06
24,33,2.41547,-7.68543e-06
25,33,2.45074,-7.79063e-06
26,33,2.48628,-7.87522e-06
27,33,2.5221,-7.93896e-06
28,33,2.55819,-7.98167e-06
29,33,2.59451,-8.00321e-06
30,33,2.63108,-8.00353e-06
31,33,2.66786,-7.98262e-06
32,33,2.70485,-7.94055e-06
33,33,2.74204,-7.87746e-06
34,33,2.7794,-7.79355e-06
35,33,2.81692,-7.6891e-06
36,33,2.85458,-7.56448e-06
37,33,2.89237,-7.42011e-06
38,33,2.93027,-7.2565e-06
39,33,2.96827,-7.07425e-06
40,33,3.00633,-6.87404e-06
41,33,3.04445,-6.65662e-06
42,33,3.0826,-6.42285e-06
43,33,3.12076,-6.17365e-06
44,33,3.15892,-5.91006e-06
45,33,3.19705,-5.6332e-06
46,33,3.23513,-5.34426e-06
47,33,3.27313,-5.04455e-06
48,33,3.31104,-4.73547e-06
49,33,3.34883,-4.41849e-06
50,33,3.38648,-4.09521e-06
51,33,3.42397,-3.76728e-06
52,33,3.46126,-3.43647e-06
53,33,3.49834,-3.10464e-06
54,33,3.53518,-2.77373e-06
55,33,3.57176,-2.44576e-06
56,33,3.60805,-2.12285e-06
57,33,3.64403,-1.80719e-06
58,33,3.67966,-1.50106e-06
59,33,3.71493,-1.20679e-06
60,33,3.74981,-9.26792e-07
61,33,3.78427,-6.63555e-07
62,33,3.81829,-4.19609e-07
63,33,3.85184,-1.97545e-07
1,34,1.72784,-5.05163e-07
2,34,1.75504,-9.93884e-07
3,34,1.78266,-1.4666e-06
4,34,1.81069,-1.9237e-06
5,34,1.83913,-2.36552e-06
6,34,1.86799,-2.79234e-06
7,34,1.89725,-3.20433e-06
8,34,1.92692,-3.6016e-06
9,34,1.95699,-3.98415e-06
10,34,1.98747,-4.35191e-06
11,34,2.01834,-4.70473e-06
12,34,2.04961,-5.04237e-06
13,34,2.08127,-5.36454e-06
14,34,2.11331,-5.67089e-06
15,34,2.14574,-5.96101e-06
16,34,2.17853,-6.23449e-06
17,34,2.2117,-6.49086e-06
18,34,2.24522,-6.72966e-06
19,34,2.2791,-6.95043e-06
20,34,2.31332,-7.1527e-06
21,34,2.34789,-7.33602e-06
22,34,2.38278,-7.49999e-06
23,34,2.41799,-7.64418e-06
24,34,2.45351,-7.76826e-06
25,34,2.48933,-7.8719e-06
26,34,2.52544,-7.95482e-06
27,34,2.56182,-8.0168e-06
28,34,2.59847,-8.05766e-06
29,34,2.63537,-8.0773e-06
30,34,2.67251,-8.07564e-06
31,34,2.70987,-8.0527e-06
32,34,2.74745,-8.00855e-06
33,34,2.78522,-7.94333e-06
34,34,2.82317,-7.85724e-06
35,34,2.86128,-7.75056e-06
36,34,2.89953,-7.62365e-06
37,34,2.93792,-7.47695e-06
38,34,2.97642,-7.31096e-06
39,34,3.01501,-7.12628e-06
40,34,3.05367,-6.92358e-06
41,34,3.09239,-6.70364e-06
42,34,3.13114,-6.4673e-06
43,34,3.16991,-6.21549e-06
44,34,3.20867,-5.94926e-06
45,34,3.24739,-5.66972e-06
46,34,3.28607,-5.37809e-06
47,34,3.32467,-5.07568e-06
48,34,3.36318,-4.76389e-06
49,34,3.40157,-4.44422e-06
50,34,3.43981,-4.11826e-06
51,34,3.47788,-3.7877e-06
52,34,3.51577,-3.45432e-06
53,34,3.55343,-3.11999e-06
54,34,3.59085,-2.78667e-06
55,34,3.62801,-2.45642e-06
56,34,3.66487,-2.13137e-06
57,34,3.70141,-1.81374e-06
58,34,3.73761,-1.50583e-06
59,34,3.77344,-1.21001e-06
60,34,3.80886,-9.28724e-07
61,34,3.84387,-6.64485e-07
62,34,3.87842,-4.1986e-07
63,34,3.9125,-1.97475e-07
1,35,1.75505,-5.13852e-07
2,35,1.78268,-1.01092e-06
3,35,1.81073,-1.49155e-06
4,35,1.8392,-1.95608e-06
5,35,1.8681,-2.40478e-06
6,35,1.8974,-2.83788e-06
7,35,1.92713,-3.25553e-06
8,35,1.95726,-3.65781e-06
9,35,1.98781,-4.04472e-06
10,35,2.01877,-4.4162e-06
11,35,2.05013,-4.77212e-06
12,35,2.08189,-5.11226e-06
13,35,2.11405,-5.43637e-06
14,35,2.14659,-5.74414e-06
15,35,2.17953,-6.03521e-06
16,35,2.21284,-6.30921e-06
17,35,2.24652,-6.56571e-06
18,35,2.28058,-6.80432e-06
19,35,2.31499,-7.02459e-06
20,35,2.34975,-7.22611e-06
21,35,2.38486,-7.40848e-06
22,35,2.4203,-7.57129e-06
23,35,2.45607,-7.71419e-06
24,35,2.49215,-7.83683e-06
25,35,2.52853,-7.93894e-06
26,35,2.56521,-8.02023e-06
27,35,2.60216,-8.08052e-06
28,35,2.63939,-8.11963e-06
29,35,2.67687,-8.13745e-06
30,35,2.7146,-8.13395e-06
31,35,2.75255,-8.10913e-06
32,35,2.79071,-8.06306e-06
33,35,2.82908,-7.99588e-06
34,35,2.86762,-7.9078e-06
35,35,2.90634,-7.79912e-06
36,35,2.9452,-7.67017e-06
37,35,2.98419,-7.52139e-06
38,35,3.02329,-7.3533e-06
39,35,3.06249,-7.16649e-06
40,35,3.10176,-6.96164e-06
41,35,3.14109,-6.73951e-06
42,35,3.18045,-6.50096e-06
43,35,3.21983,-6.24692e-06
44,35,3.2592,-5.97844e-06
45,35,3.29853,-5.69664e-06
46,35,3.33782,-5.40274e-06
47,35,3.37703,-5.09806e-06
48,35,3.41614,-4.78401e-06
49,35,3.45513,-4.46211e-06
50,35,3.49398,-4.13395e-06
51,35,3.53265,-3.80123e-06
52,35,3.57113,-3.46577e-06
53,35,3.60939,-3.12944e-06
54,35,3.6474,-2.79422e-06
55,35,3.68514,-2.4622e-06
56,35,3.72258,-2.13553e-06
57,35,3.7597,-1.81645e-06
58,35,3.79647,-1.50729e-06
59,35,3.83286,-1.21046e-06
60,35,3.86884,-9.2843e-07
61,35,3.9044,-6.63737e-07
62,35,3.9395,-4.18987e-07
63,35,3.97411,-1.96839e-07
1,36,1.78269,-5.21225e-07
2,36,1.81076,-1.02533e-06
3,36,1.83925,-1.51261e-06
4,36,1.86817,-1.98335e-06
5,36,1.89751,-2.43778e-06
6,36,1.92728,-2.87608e-06
7,36,1.95747,-3.29838e-06
8,36,1.98809,-3.70475e-06
9,36,2.01912,-4.0952e-06
10,36,2.05056,-4.46966e-06
11,36,2.08241,-4.82801e-06
12,36,2.11467,-5.17007e-06
13,36,2.14734,-5.49562e-06
14,36,2.1804,-5.80438e-06
15,36,2.21385,-6.09604e-06
16,36,2.24769,-6.37024e-06
17,36,2.2819,-6.62663e-06
18,36,2.31649,-6.86481e-06
19,36,2.35145,-7.08442e-06
20,36,2.38676,-7.28506e-06
21,36,2.42242,-7.46636e-06
22,36,2.45842,-7.62795e-06
23,36,2.49474,-7.7695e-06
24,36,2.53139,-7.8907e-06
25,36,2.56835,-7.99128e-06
26,36,2.6056,-8.07098e-06
27,36,2.64314,-8.12962e-06
28,36,2.68096,-8.16705e-06
29,36,2.71903,-8.18317e-06
30,36,2.75735,-8.17794e-06
31,36,2.7959,-8.15137e-06
32,36,2.83466,-8.10354e-06
33,36,2.87363,-8.0346e-06
34,36,2.91278,-7.94475e-06
35,36,2.9521,-7.83428e-06
36,36,2.99158,-7.70355e-06
37,36,3.03118,-7.55297e-06
38,36,3.0709,-7.38308e-06
39,36,3.11072,-7.19446e-06
40,36,3.15061,-6.98779e-06
41,36,3.19055,-6.76383e-06
42,36,3.23054,-6.52344e-06
43,36,3.27053,-6.26757e-06
44,36,3.31052,-5.99725e-06
45,36,3.35048,-5.71361e-06
46,36,3.39038,-5.41789e-06
47,36,3.43021,-5.11139e-06
48,36,3.46994,-4.79556e-06
49,36,3.50955,-4.4719e-06
50,36,3.549,-4.14203e-06
51,36,3.58828,-3.80767e-06
52,36,3.62737,-3.47062e-06
53,36,3.66623,-3.13281e-06
54,36,3.70484,-2.79622e-06
55,36,3.74317,-2.46296e-06
56,36,3.78121,-2.1352e-06
57,36,3.81891,-1.81522e-06
58,36,3.85625,-1.50536e-06
59,36,3.89322,-1.20807e-06
60,36,3.92977,-9.25849e-07
61,36,3.96589,-6.61265e-07
62,36,4.00154,-4.16958e-07
63,36,4.0367,-1.95622e-07
1,37,1.81076,-5.27328e-07
2,37,1.83927,-1.03722e-06
3,37,1.86821,-1.52992e-06
4,37,1.89759,-2.00568e-06
5,37,1.92739,-2.46469e-06
6,37,1.95763,-2.90711e-06
7,37,1.9883,-3.33306e-06
8,37,2.01939,-3.7426e-06
9,37,2.05091,-4.13573e-06
10,37,2.08285,-4.51239e-06
11,37,2.11521,-4.87248e-06
12,37,2.14798,-5.21585e-06
13,37,2.18115,-5.54229e-06
14,37,2.21473,-5.85156e-06
15,37,2.24871,-6.14337e-06
16,37,2.28308,-6.41742e-06
17,37,2.31784,-6.67338e-06
18,37,2.35297,-6.91089e-06
19,37,2.38848,-7.12962e-06
20,37,2.42434,-7.3292e-06
21,37,2.46056,-7.50929e-06
22,37,2.49713,-7.66956e-06
23,37,2.53403,-7.80969e-06
24,37,2.57126,-7.9294e-06
25,37,2.60879,-8.02843e-06
26,37,2.64664,-8.10655e-06
27,37,2.68477,-8.16359e-06
28,37,2.72317,-8.19941e-06
29,37,2.76185,-8.21391e-06
30,37,2.80077,-8.20706e-06
31,37,2.83992,-8.17889e-06
32,37,2.8793,-8.12948e-06
33,37,2.91888,-8.05896e-06
34,37,2.95865,-7.96755e-06
35,37,2.99859,-7.85554e-06
36,37,3.03869,-7.72328e-06
37,37,3.07891,-7.5712e-06
38,37,3.11926,-7.39981e-06
39,37,3.1597,-7.20971e-06
40,37,3.20022,-7.00157e-06
41,37,3.2408,-6.77616e-06
42,37,3.28141,-6.53433e-06
43,37,3.32204,-6.27704e-06
44,37,3.36265,-6.00531e-06
45,37,3.40324,-5.72028e-06
46,37,3.44377,-5.42319e-06
47,37,3.48423,-5.11537e-06
48,37,3.52458,-4.79823e-06
49,37,3.56481,-4.47332e-06
50,37,3.60489,-4.14225e-06
51,37,3.64479,-3.80676e-06
52,37,3.68449,-3.46867e-06
53,37,3.72396,-3.12991e-06
54,37,3.76318,-2.79249e-06
55,37,3.80212,-2.45854e-06
56,37,3.84075,-2.13025e-06
57,37,3.87905,-1.80993e-06
58,37,3.91698,-1.49994e-06
59,37,3.95453,-1.20276e-06
60,37,3.99165,-9.20919e-07
61,37,4.02834,-6.57023e-07
62,37,4.06455,-4.13743e-07
63,37,4.10026,-1.93808e-07
1,38,1.83928,-5.32191e-07
2,38,1.86824,-1.04663e-06
3,38,1.89763,-1.54355e-06
4,38,1.92747,-2.02315e-06
5,38,1.95775,-2.48562e-06
6,38,1.98846,-2.9311e-06
7,38,2.01961,-3.35969e-06
8,38,2.0512,-3.77145e-06
9,38,2.08321,-4.16638e-06
10,38,2.11565,-4.54444e-06
11,38,2.14852,-4.90555e-06
12,38,2.1818,-5.24956e-06
13,38,2.2155,-5.5763e-06
14,38,2.24961,-5.88554e-06
15,38,2.28412,-6.17705e-06
16,38,2.31904,-6.45054e-06
17,38,2.35434,-6.7057e-06
18,38,2.39003,-6.94224e-06
19,38,2.42609,-7.15982e-06
20,38,2.46252,-7.35813e-06
21,38,2.49931,-7.53683e-06
22,38,2.53645,-7.69564e-06
23,38,2.57394,-7.83425e-06
24,38,2.61175,-7.95241e-06
25,38,2.64988,-8.04986e-06
26,38,2.68831,-8.1264e-06
27,38,2.72705,-8.18186e-06
28,38,2.76606,-8.21612e-06
29,38,2.80534,-8.22909e-06
30,38,2.84487,-8.22074e-06
31,38,2.88465,-8.19111e-06
32,38,2.92464,-8.14027e-06
33,38,2.96485,-8.06838e-06
34,38,3.00524,-7.97563e-06
35,38,3.04581,-7.86233e-06
36,38,3.08654,-7.72882e-06
37,38,3.1274,-7.57553e-06
38,38,3.16838,-7.40297e-06
39,38,3.20946,-7.21174e-06
40,38,3.25062,-7.00251e-06
41,38,3.29183,-6.77604e-06
42,38,3.33308,-6.53319e-06
43,38,3.37435,-6.2749e-06
44,38,3.41561,-6.00222e-06
45,38,3.45683,-5.71627e-06
46,38,3.49801,-5.41831e-06
47,38,3.5391,-5.10965e-06
48,38,3.58009,-4.79173e-06
49,38,3.62095,-4.46609e-06
50,38,3.66166,-4.13436e-06
51,38,3.70219,-3.79829e-06
52,38,3.74251,-3.4597e-06
53,38,3.78261,-3.12055e-06
54,38,3.82244,-2.78287e-06
55,38,3.862,-2.4488e-06
56,38,3.90123,-2.12055e-06
57,38,3.94013,-1.80046e-06
58,38,3.97866,-1.49093e-06
59,38,4.0168,-1.19444e-06
60,38,4.05451,-9.13574e-07
61,38,4.09178,-6.50961e-07
62,38,4.12856,-4.09309e-07
63,38,4.16483,-1.91382e-07
1,39,1.86824,-5.3583e-07
2,39,1.89766,-1.05361e-06
3,39,1.92752,-1.55354e-06
4,39,1.95782,-2.03583e-06
5,39,1.98858,-2.50063e-06
6,39,2.01978,-2.94808e-06
7,39,2.05142,-3.37829e-06
8,39,2.0835,-3.7913e-06
9,39,2.11602,-4.18714e-06
10,39,2.14897,-4.56577e-06
11,39,2.18235,-4.92712e-06
12,39,2.21616,-5.27108e-06
13,39,2.25039,-5.59748e-06
14,39,2.28504,-5.90614e-06
15,39,2.32009,-6.19683e-06
16,39,2.35555,-6.4693e-06
17,39,2.39141,-6.72328e-06
18,39,2.42766,-6.95849e-06
19,39,2.46429,-7.17463e-06
20,39,2.5013,-7.37141e-06
21,39,2.53867,-7.54853e-06
22,39,2.5764,-7.70571e-06
23,39,2.61447,-7.84267e-06
24,39,2.65288,-7.95917e-06
25,39,2.69161,-8.05499e-06
26,39,2.73065,-8.12993e-06
27,39,2.76999,-8.18383e-06
28,39,2.80962,-8.21657e-06
29,39,2.84952,-8.22809e-06
30,39,2.88967,-8.21836e-06
31,39,2.93007,-8.18741e-06
32,39,2.9707,-8.13532e-06
33,39,3.01154,-8.06225e-06
34,39,3.05257,-7.9684e-06
35,39,3.09378,-7.85407e-06
36,39,3.13514,-7.71959e-06
37,39,3.17665,-7.56541e-06
38,39,3.21828,-7.39202e-06
39,39,3.26,-7.20003e-06
40,39,3.30181,-6.99009e-06
41,39,3.34367,-6.76298e-06
42,39,3.38557,-6.51954e-06
43,39,3.42749,-6.26072e-06
44,39,3.4694,-5.98756e-06
45,39,3.51127,-5.70119e-06
46,39,3.55309,-5.40285e-06
47,39,3.59483,-5.09388e-06
48,39,3.63647,-4.77572e-06
49,39,3.67797,-4.4499e-06
50,39,3.71932,-4.11807e-06
51,39,3.76049,-3.78198e-06
52,39,3.80145,-3.44348e-06
53,39,3.84218,-3.10453e-06
54,39,3.88264,-2.76717e-06
55,39,3.92281,-2.43356e-06
56,39,3.96267,-2.10596e-06
57,39,4.00218,-1.7867e-06
58,39,4.04132,-1.47822e-06
59,39,4.08006,-1.18304e-06
60,39,4.11836,-9.0375e-07
61,39,4.15621,-6.43032e-07
62,39,4.19357,-4.03624e-07
63,39,4.23042,-1.88328e-07
1,40,1.89766,-5.3825e-07
2,40,1.92754,-1.05815e-06
3,40,1.95787,-1.5599e-06
4,40,1.98865,-2.0437e-06
5,40,2.01989,-2.5097e-06
6,40,2.05158,-2.95804e-06
7,40,2.08372,-3.38882e-06
8,40,2.11631,-3.80211e-06
9,40,2.14934,-4.19793e-06
10,40,2.18281,-4.57627e-06
11,40,2.21672,-4.93707e-06
12,40,2.25106,-5.28024e-06
13,40,2.28583,-5.60563e-06
14,40,2.32102,-5.91308e-06
15,40,2.35663,-6.2024e-06
16,40,2.39265,-6.47336e-06
17,40,2.42907,-6.72572e-06
18,40,2.46589,-6.95922e-06
19,40,2.5031,-7.17359e-06
20,40,2.54069,-7.36856e-06
21,40,2.57865,-7.54385e-06
22,40,2.61697,-7.6992e-06
23,40,2.65564,-7.83436e-06
24,40,2.69465,-7.94911e-06
25,40,2.73399,-8.04322e-06
26,40,2.77365,-8.11652e-06
27,40,2.81361,-8.16886e-06
28,40,2.85386,-8.20013e-06
29,40,2.89439,-8.21027e-06
30,40,2.93518,-8.19926e-06
31,40,2.97622,-8.16713e-06
32,40,3.01748,-8.11397e-06
33,40,3.05896,-8.03993e-06
34,40,3.10064,-7.94522e-06
35,40,3.1425,-7.83012e-06
36,40,3.18452,-7.69499e-06
37,40,3.22668,-7.54024e-06
38,40,3.26896,-7.36639e-06
39,40,3.31134,-7.17401e-06
40,40,3.3538,-6.96378e-06
41,40,3.39633,-6.73646e-06
42,40,3.43889,-6.49289e-06
43,40,3.48146,-6.23402e-06
44,40,3.52403,-5.96088e-06
45,40,3.56657,-5.67461e-06
46,40,3.60904,-5.37644e-06
47,40,3.65144,-5.06772e-06
48,40,3.69373,-4.74987e-06
49,40,3.73589,-4.42445e-06
50,40,3.77789,-4.0931e-06
51,40,3.81971,-3.75759e-06
52,40,3.86131,-3.41978e-06
53,40,3.90268,-3.08162e-06
54,40,3.94378,-2.7452e-06
55,40,3.98459,-2.41268e-06
56,40,4.02507,-2.08633e-06
57,40,4.06521,-1.76852e-06
58,40,4.10496,-1.46172e-06
59,40,4.14431,-1.16846e-06
60,40,4.18322,-8.91381e-07
61,40,4.22166,-6.33188e-07
62,40,4.25961,-3.96658e-07
63,40,4.29704,-1.8463e-07
1,41,1.92755,-5.39442e-07
2,41,1.95789,-1.06024e-06
3,41,1.9887,-1.56261e-06
4,41,2.01997,-2.04674e-06
5,41,2.0517,-2.51278e-06
6,41,2.08389,-2.9609e-06
7,41,2.11654,-3.3912e-06
8,41,2.14963,-3.80376e-06
9,41,2.18319,-4.19861e-06
10,41,2.21718,-4.57576e-06
11,41,2.25163,-4.93517e-06
12,41,2.28651,-5.27677e-06
13,41,2.32183,-5.60044e-06
14,41,2.35757,-5.90604e-06
15,41,2.39374,-6.1934e-06
16,41,2.43033,-6.46233e-06
17,41,2.46733,-6.71259e-06
18,41,2.50473,-6.94395e-06
19,41,2.54252,-7.15618e-06
20,41,2.5807,-7.34902e-06
21,41,2.61926,-7.52221e-06
22,41,2.65818,-7.67552e-06
23,41,2.69746,-7.8087e-06
24,41,2.73709,-7.92155e-06
25,41,2.77705,-8.01387e-06
26,41,2.81733,-8.08548e-06
27,41,2.85792,-8.13626e-06
28,41,2.8988,-8.16609e-06
29,41,2.93997,-8.17492e-06
30,41,2.9814,-8.16274e-06
31,41,3.02308,-8.12957e-06
32,41,3.065,-8.07552e-06
33,41,3.10714,-8.00073e-06
34,41,3.14947,-7.9054e-06
35,41,3.19199,-7.78983e-06
36,41,3.23466,-7.65435e-06
37,41,3.27749,-7.49939e-06
38,41,3.32044,-7.32544e-06
39,41,3.36349,-7.13309e-06
40,41,3.40662,-6.92301e-06
41,41,3.44981,-6.69594e-06
42,41,3.49304,-6.45273e-06
43,41,3.53629,-6.19431e-06
44,41,3.57953,-5.92172e-06
45,41,3.62273,-5.63609e-06
46,41,3.66588,-5.33866e-06
47,41,3.70894,-5.03075e-06
48,41,3.7519,-4.71382e-06
49,41,3.79472,-4.3894e-06
50,41,3.83739,-4.05916e-06
51,41,3.87986,-3.72485e-06
52,41,3.92212,-3.38835e-06
53,41,3.96414,-3.05163e-06
54,41,4.00589,-2.71677e-06
55,41,4.04734,-2.38597e-06
56,41,4.08846,-2.06152e-06
57,41,4.12922,-1.74581e-06
58,41,4.1696,-1.44132e-06
59,41,4.20957,-1.15063e-06
60,41,4.24909,-8.76403e-07
61,41,4.28814,-6.21381e-07
62,41,4.32669,-3.88377e-07
63,41,4.36471,-1.80272e-07
1,42,1.9579,-5.39388e-07
2,42,1.98873,-1.05985e-06
3,42,2.02002,-1.56161e-06
4,42,2.05178,-2.04486e-06
5,42,2.08401,-2.50978e-06
6,42,2.11671,-2.95654e-06
7,42,2.14987,-3.38527e-06
8,42,2.18349,-3.79605e-06
9,42,2.21757,-4.18895e-06
10,42,2.2521,-4.56398e-06
11,42,2.28708,-4.92113e-06
12,42,2.32252,-5.26036e-06
13,42,2.35839,-5.58156e-06
14,42,2.3947,-5.88462e-06
15,42,2.43144,-6.1694e-06
16,42,2.4686,-6.43571e-06
17,42,2.50618,-6.68336e-06
18,42,2.54417,-6.91214e-06
19,42,2.58256,-7.12183e-06
20,42,2.62134,-7.31219e-06
21,42,2.6605,-7.48299e-06
22,42,2.70004,-7.634e-06
23,42,2.73994,-7.76502e-06
24,42,2.78019,-7.87582e-06
25,42,2.82078,-7.96624e-06
26,42,2.8617,-8.03611e-06
27,42,2.90293,-8.0853e-06
28,42,2.94445,-8.11371e-06
29,42,2.98627,-8.1213e-06
30,42,3.02835,-8.10805e-06
31,42,3.07069,-8.074e-06
32,42,3.11327,-8.01924e-06
33,42,3.15607,-7.94392e-06
34,42,3.19907,-7.84824e-06
35,42,3.24225,-7.73249e-06
36,42,3.2856,-7.59699e-06
37,42,3.3291,-7.44218e-06
38,42,3.37272,-7.26854e-06
39,42,3.41645,-7.07665e-06
40,42,3.46027,-6.86716e-06
41,42,3.50414,-6.64083e-06
42,42,3.54805,-6.39848e-06
43,42,3.59198,-6.14106e-06
44,42,3.6359,-5.86958e-06
45,42,3.67978,-5.58517e-06
46,42,3.72361,-5.28907e-06
47,42,3.76735,-4.9826e-06
48,42,3.81098,-4.6672e-06
49,42,3.85448,-4.34442e-06
50,42,3.89782,-4.01593e-06
51,42,3.94096,-3.68347e-06
52,42,3.98389,-3.34894e-06
53,42,4.02657,-3.01432e-06
54,42,4.06897,-2.6817e-06
55,42,4.11107,-2.35329e-06
56,42,4.15284,-2.0314e-06
57,42,4.19425,-1.71844e-06
58,42,4.23527,-1.41693e-06
59,42,4.27586,-1.12947e-06
60,42,4.31601,-8.58753e-07
61,42,4.35567,-6.07565e-07
62,42,4.39483,-3.78753e-07
63,42,4.43344,-1.75239e-07
1,43,1.98874,-5.38062e-07
2,43,2.02004,-1.05692e-06
3,43,2.05183,-1.55681e-06
4,43,2.08409,-2.03795e-06
5,43,2.11683,-2.50055e-06
6,43,2.15004,-2.94479e-06
7,43,2.18372,-3.37082e-06
8,43,2.21787,-3.77875e-06
9,43,2.25249,-4.16867e-06
10,43,2.28757,-4.54062e-06
11,43,2.3231,-4.89461e-06
12,43,2.35909,-5.23061e-06
13,43,2.39553,-5.54855e-06
14,43,2.43241,-5.84835e-06
15,43,2.46973,-6.12987e-06
16,43,2.50748,-6.39297e-06
17,43,2.54565,-6.63747e-06
18,43,2.58423,-6.86318e-06
19,43,2.62323,-7.06989e-06
20,43,2.66262,-7.2574e-06
21,43,2.7024,-7.42549e-06
22,43,2.74256,-7.57394e-06
23,43,2.78309,-7.70256e-06
24,43,2.82397,-7.81116e-06
25,43,2.8652,-7.89956e-06
26,43,2.90676,-7.96761e-06
27,43,2.94864,-8.01518e-06
28,43,2.99082,-8.04221e-06
29,43,3.0333,-8.04862e-06
30,43,3.07604,-8.03441e-06
31,43,3.11905,-7.99962e-06
32,43,3.16229,-7.94435e-06
33,43,3.20577,-7.86873e-06
34,43,3.24944,-7.77297e-06
35,43,3.29331,-7.65734e-06
36,43,3.33734,-7.52218e-06
37,43,3.38153,-7.3679e-06
38,43,3.42584,-7.19499e-06
39,43,3.47025,-7.004e-06
40,43,3.51476,-6.7956e-06
41,43,3.55932,-6.57052e-06
42,43,3.60392,-6.32958e-06
43,43,3.64854,-6.07371e-06
44,43,3.69315,-5.80393e-06
45,43,3.73773,-5.52136e-06
46,43,3.78225,-5.22721e-06
47,43,3.82668,-4.92282e-06
48,43,3.871,-4.60962e-06
49,43,3.91518,-4.28916e-06
50,43,3.9592,-3.96309e-06
51,43,4.00302,-3.63317e-06
52,43,4.04662,-3.3013e-06
53,43,4.08998,-2.96947e-06
54,43,4.13305,-2.63977e-06
55,43,4.17581,-2.31444e-06
56,43,4.21824,-1.9958e-06
57,43,4.2603,-1.68629e-06
58,43,4.30196,-1.38844e-06
59,43,4.3432,-1.10489e-06
60,43,4.38398,-8.38372e-07
61,43,4.42426,-5.91696e-07
62,43,4.46404,-3.67757e-07
63,43,4.50326,-1.69517e-07
1,44,2.02005,-5.35426e-07
2,44,2.05186,-1.05137e-06
3,44,2.08414,-1.5481e-06
4,44,2.11691,-2.02586e-06
5,44,2.15016,-2.4849e-06
6,44,2.1839,-2.92541e-06
7,44,2.21811,-3.34758e-06
8,44,2.2528,-3.75155e-06
9,44,2.28796,-4.13743e-06
10,44,2.32359,-4.50529e-06
11,44,2.35968,-4.85517e-06
12,44,2.39624,-5.18706e-06
13,44,2.43325,-5.50092e-06
14,44,2.47071,-5.7967e-06
15,44,2.50862,-6.07427e-06
16,44,2.54696,-6.33351e-06
17,44,2.58574,-6.57428e-06
18,44,2.62493,-6.79639e-06
19,44,2.66454,-6.99967e-06
20,44,2.70455,-7.18393e-06
21,44,2.74496,-7.34895e-06
22,44,2.78575,-7.49456e-06
23,44,2.82692,-7.62055e-06
24,44,2.86844,-7.72675e-06
25,44,2.91032,-7.813e-06
26,44,2.95254,-7.87914e-06
27,44,2.99507,-7.92508e-06
28,44,3.03792,-7.95072e-06
29,44,3.08106,-7.95602e-06
30,44,3.12448,-7.94096e-06
31,44,3.16817,-7.90559e-06
32,44,3.21209,-7.85e-06
33,44,3.25625,-7.77433e-06
34,44,3.30062,-7.67877e-06
35,44,3.34517,-7.5636e-06
36,44,3.3899,-7.42914e-06
37,44,3.43478,-7.2758e-06
38,44,3.47979,-7.10405e-06
39,44,3.5249,-6.91445e-06
40,44,3.57011,-6.70764e-06
41,44,3.61537,-6.48436e-06
42,44,3.66068,-6.2454e-06
43,44,3.706,-5.99169e-06
44,44,3.75131,-5.72423e-06
45,44,3.79659,-5.44414e-06
46,44,3.84181,-5.15262e-06
47,44,3.88694,-4.85099e-06
48,44,3.93196,-4.54069e-06
49,44,3.97684,-4.22324e-06
50,44,4.02155,-3.90031e-06
51,44,4.06606,-3.57366e-06
52,44,4.11035,-3.24518e-06
53,44,4.15438,-2.91685e-06
54,44,4.19813,-2.59081e-06
55,44,4.24157,-2.26928e-06
56,44,4.28467,-1.95461e-06
57,44,4.32739,-1.64925e-06
58,44,4.36971,-1.35577e-06
59,44,4.41159,-1.07683e-06
60,44,4.45301,-8.15205e-07
61,44,4.49394,-5.73736e-07
62,44,4.53433,-3.55363e-07
63,44,4.57417,-1.63095e-07
1,45,2.05186,-5.31435e-07
2,45,2.08417,-1.04311e-06
3,45,2.11696,-1.53534e-06
4,45,2.15025,-2.00841e-06
5,45,2.18402,-2.4626e-06
6,45,2.21829,-2.89813e-06
7,45,2.25304,-3.31524e-06
8,45,2.28827,-3.71409e-06
9,45,2.32399,-4.09482e-06
10,45,2.36018,-4.45755e-06
11,45,2.39684,-4.80233e-06
12,45,2.43398,-5.12918e-06
13,45,2.47157,-5.43811e-06
14,45,2.50962,-5.72905e-06
15,45,2.54812,-6.00193e-06
16,45,2.58707,-6.25665e-06
17,45,2.62645,-6.49307e-06
18,45,2.66627,-6.71105e-06
19,45,2.7065,-6.91041e-06
20,45,2.74714,-7.09098e-06
21,45,2.78819,-7.25257e-06
22,45,2.82962,-7.39502e-06
23,45,2.87143,-7.51812e-06
24,45,2.91362,-7.62173e-06
25,45,2.95615,-7.70567e-06
26,45,2.99903,-7.76983e-06
27,45,3.04224,-7.81408e-06
28,45,3.08576,-7.83835e-06
29,45,3.12958,-7.84259e-06
30,45,3.17369,-7.8268e-06
31,45,3.21806,-7.79101e-06
32,45,3.26268,-7.73531e-06
33,45,3.30753,-7.65984e-06
34,45,3.35259,-7.56479e-06
35,45,3.39785,-7.45041e-06
36,45,3.44328,-7.31704e-06
37,45,3.48887,-7.16507e-06
38,45,3.53459,-6.99495e-06
39,45,3.58041,-6.80725e-06
40,45,3.62633,-6.60258e-06
41,45,3.67231,-6.38166e-06
42,45,3.71833,-6.14529e-06
43,45,3.76436,-5.89437e-06
44,45,3.81039,-5.6299e-06
45,45,3.85638,-5.35297e-06
46,45,3.90231,-5.06478e-06
47,45,3.94815,-4.76664e-06
48,45,3.99388,-4.45997e-06
49,45,4.03946,-4.14629e-06
50,45,4.08488,-3.82726e-06
51,45,4.13009,-3.50464e-06
52,45,4.17508,-3.1803e-06
53,45,4.21981,-2.85625e-06
54,45,4.26425,-2.53462e-06
55,45,4.30837,-2.21764e-06
56,45,4.35214,-1.90768e-06
57,45,4.39554,-1.60722e-06
58,45,4.43852,-1.31883e-06
59,45,4.48107,-1.04523e-06
60,45,4.52314,-7.89202e-07
61,45,4.56471,-5.5365e-07
62,45,4.60574,-3.41551e-07
63,45,4.64621,-1.5596e-07
1,46,2.08418,-5.26031e-07
2,46,2.11699,-1.03204e-06
3,46,2.1503,-1.51838e-06
4,46,2.18411,-1.98538e-06
5,46,2.21842,-2.43337e-06
6,46,2.25322,-2.86263e-06
7,46,2.28852,-3.27341e-06
8,46,2.32431,-3.66594e-06
9,46,2.36059,-4.04038e-06
10,46,2.39735,-4.39688e-06
11,46,2.43459,-4.73553e-06
12,46,2.47231,-5.05638e-06
13,46,2.51049,-5.35946e-06
14,46,2.54914,-5.64473e-06
15,46,2.58825,-5.91215e-06
16,46,2.62781,-6.16164e-06
17,46,2.66782,-6.39307e-06
18,46,2.70825,-6.60633e-06
19,46,2.74912,-6.80125e-06
20,46,2.7904,-6.97768e-06
21,46,2.83209,-7.13546e-06
22,46,2.87418,-7.27441e-06
23,46,2.91665,-7.39435e-06
24,46,2.9595,-7.49515e-06
25,46,3.00271,-7.57664e-06
26,46,3.04626,-7.6387e-06
27,46,3.09015,-7.68122e-06
28,46,3.13436,-7.70413e-06
29,46,3.17887,-7.70738e-06
30,46,3.22367,-7.69097e-06
31,46,3.26873,-7.65493e-06
32,46,3.31406,-7.59934e-06
33,46,3.35962,-7.52433e-06
34,46,3.40539,-7.4301e-06
35,46,3.45136,-7.31689e-06
36,46,3.49751,-7.18501e-06
37,46,3.54381,-7.03486e-06
38,46,3.59025,-6.86687e-06
39,46,3.6368,-6.68159e-06
40,46,3.68343,-6.47963e-06
41,46,3.73014,-6.26169e-06
42,46,3.77688,-6.02856e-06
43,46,3.82364,-5.78111e-06
44,46,3.87039,-5.52033e-06
45,46,3.91711,-5.24729e-06
46,46,3.96376,-4.96318e-06
47,46,4.01032,-4.6693e-06
48,46,4.05677,-4.36704e-06
49,46,4.10308,-4.05793e-06
50,46,4.1492,-3.74359e-06
51,46,4.19513,-3.42579e-06
52,46,4.24083,-3.10641e-06
53,46,4.28626,-2.78744e-06
54,46,4.3314,-2.47101e-06
55,46,4.37621,-2.15937e-06
56,46,4.42068,-1.8549e-06
57,46,4.46476,-1.56009e-06
58,46,4.50842,-1.27755e-06
59,46,4.55163,-1.01002e-06
60,46,4.59437,-7.60326e-07
61,46,4.63659,-5.31412e-07
62,46,4.67827,-3.26303e-07
63,46,4.71937,-1.48107e-07
1,47,2.117,-5.19149e-07
2,47,2.15033,-1.01801e-06
3,47,2.18416,-1.497e-06
4,47,2.2185,-1.95651e-06
5,47,2.25335,-2.39691e-06
6,47,2.28871,-2.81853e-06
7,47,2.32456,-3.22168e-06
8,47,2.36091,-3.60662e-06
9,47,2.39776,-3.97357e-06
10,47,2.4351,-4.3227e-06
11,47,2.47293,-4.65414e-06
12,47,2.51124,-4.96798e-06
13,47,2.55003,-5.26426e-06
14,47,2.58929,-5.54299e-06
15,47,2.62901,-5.80415e-06
16,47,2.66919,-6.04765e-06
17,47,2.70983,-6.27343e-06
18,47,2.7509,-6.48135e-06
19,47,2.79241,-6.6713e-06
20,47,2.83435,-6.84312e-06
21,47,2.87669,-6.99666e-06
22,47,2.91944,-7.13176e-06
23,47,2.96258,-7.24826e-06
24,47,3.0061,-7.34601e-06
25,47,3.04999,-7.42488e-06
26,47,3.09423,-7.48474e-06
27,47,3.13881,-7.52548e-06
28,47,3.18372,-7.54704e-06
29,47,3.22893,-7.54936e-06
30,47,3.27443,-7.53245e-06
31,47,3.32021,-7.49632e-06
32,47,3.36625,-7.44107e-06
33,47,3.41252,-7.36681e-06
34,47,3.45902,-7.27373e-06
35,47,3.50571,-7.16207e-06
36,47,3.55259,-7.03212e-06
37,47,3.59962,-6.88426e-06
38,47,3.64679,-6.71893e-06
39,47,3.69407,-6.53665e-06
40,47,3.74144,-6.33801e-06
41,47,3.78888,-6.1237e-06
42,47,3.83636,-5.89448e-06
43,47,3.88385,-5.65122e-06
44,47,3.93134,-5.39487e-06
45,47,3.97879,-5.1265e-06
46,47,4.02618,-4.84727e-06
47,47,4.07348,-4.55846e-06
48,47,4.12066,-4.26145e-06
49,47,4.16769,-3.95774e-06
50,47,4.21455,-3.64895e-06
51,47,4.26119,-3.33683e-06
52,47,4.30761,-3.02325e-06
53,47,4.35376,-2.71019e-06
54,47,4.39961,-2.3998e-06
55,47,4.44513,-2.09432e-06
56,47,4.49029,-1.79614e-06
57,47,4.53507,-1.50778e-06
58,47,4.57942,-1.23186e-06
59,47,4.62331,-9.71163e-07
60,47,4.66672,-7.28549e-07
61,47,4.70961,-5.07005e-07
62,47,4.75194,-3.0961e-07
63,47,4.79369,-1.39529e-07
1,48,2.15034,-5.10714e-07
2,48,2.18419,-1.00089e-06
3,48,2.21856,-1.471e-06
4,48,2.25344,-1.9215e-06
5,48,2.28884,-2.35284e-06
6,48,2.32475,-2.7654e-06
7,48,2.36117,-3.15954e-06
8,48,2.39809,-3.53558e-06
9,48,2.43552,-3.89378e-06
10,48,2.47345,-4.23435e-06
11,48,2.51187,-4.55746e-06
12,48,2.55079,-4.86323e-06
13,48,2.59018,-5.15173e-06
14,48,2.63006,-5.42301e-06
15,48,2.67041,-5.67704e-06
16,48,2.71123,-5.9138e-06
17,48,2.7525,-6.13321e-06
18,48,2.79422,-6.33517e-06
19,48,2.83639,-6.51957e-06
20,48,2.87898,-6.68627e-06
21,48,2.92199,-6.83514e-06
22,48,2.96542,-6.96602e-06
23,48,3.00924,-7.07877e-06
24,48,3.05344,-7.17325e-06
25,48,3.09802,-7.24931e-06
26,48,3.14296,-7.30685e-06
27,48,3.18824,-7.34576e-06
28,48,3.23385,-7.36597e-06
29,48,3.27978,-7.36743e-06
30,48,3.326,-7.35014e-06
31,48,3.3725,-7.31412e-06
32,48,3.41926,-7.25944e-06
33,48,3.46626,-7.18623e-06
34,48,3.51349,-7.09465e-06
35,48,3.56092,-6.98494e-06
36,48,3.60853,-6.85738e-06
37,48,3.6563,-6.71233e-06
38,48,3.70422,-6.55021e-06
39,48,3.75224,-6.37153e-06
40,48,3.80036,-6.17685e-06
41,48,3.84854,-5.96686e-06
42,48,3.89677,-5.74228e-06
43,48,3.94502,-5.50397e-06
44,48,3.99325,-5.25286e-06
45,48,4.04145,-4.98998e-06
46,48,4.08958,-4.71648e-06
47,48,4.13763,-4.43361e-06
48,48,4.18555,-4.14273e-06
49,48,4.23332,-3.84531e-06
50,48,4.28091,-3.54298e-06
51,48,4.3283,-3.23744e-06
52,48,4.37544,-2.93055e-06
53,48,4.42232,-2.62431e-06
54,48,4.46889,-2.32083e-06
55,48,4.51513,-2.02237e-06
56,48,4.56101,-1.73133e-06
57,48,4.60648,-1.45023e-06
58,48,4.65153,-1.18174e-06
59,48,4.69612,-9.28641e-07
60,48,4.74021,-6.9386e-07
61,48,4.78377,-4.80425e-07
62,48,4.82677,-2.91473e-07
63,48,4.86918,-1.30229e-07
1,49,2.1842,-5.00637e-07
2,49,2.21858,-9.80484e-07
3,49,2.25349,-1.4401e-06
4,49,2.28893,-1.88002e-06
5,49,2.32488,-2.30075e-06
6,49,2.36136,-2.70275e-06
7,49,2.39835,-3.08645e-06
8,49,2.43586,-3.4522e-06
9,49,2.47387,-3.80033e-06
10,49,2.5124,-4.1311e-06
11,49,2.55143,-4.4447e-06
12,49,2.59095,-4.7413e-06
13,49,2.63097,-5.021e-06
14,49,2.67148,-5.28386e-06
15,49,2.71247,-5.5299e-06
16,49,2.75392,-5.7591e-06
17,49,2.79585,-5.97141e-06
18,49,2.83823,-6.16674e-06
19,49,2.88105,-6.345e-06
20,49,2.92432,-6.50606e-06
21,49,2.96801,-6.6498e-06
22,49,3.01212,-6.77608e-06
23,49,3.05663,-6.88476e-06
24,49,3.10153,-6.9757e-06
25,49,3.14681,-7.04878e-06
26,49,3.19245,-7.10387e-06
27,49,3.23845,-7.14089e-06
28,49,3.28478,-7.15976e-06
29,49,3.33143,-7.16043e-06
30,49,3.37837,-7.14289e-06
31,49,3.42561,-7.10717e-06
32,49,3.4731,-7.05332e-06
33,49,3.52085,-6.98147e-06
34,49,3.56882,-6.89177e-06
35,49,3.617,-6.78443e-06
36,49,3.66536,-6.65974e-06
37,49,3.71388,-6.51803e-06
38,49,3.76255,-6.35972e-06
39,49,3.81133,-6.18528e-06
40,49,3.86021,-5.99526e-06
41,49,3.90915,-5.79032e-06
42,49,3.95814,-5.57116e-06
43,49,4.00714,-5.33861e-06
44,49,4.05614,-5.09358e-06
45,49,4.10509,-4.83708e-06
46,49,4.15399,-4.57021e-06
47,49,4.20278,-4.29421e-06
48,49,4.25146,-4.0104e-06
49,49,4.29999,-3.72024e-06
50,49,4.34833,-3.42531e-06
51,49,4.39646,-3.12731e-06
52,49,4.44435,-2.82807e-06
53,49,4.49196,-2.52958e-06
54,49,4.53927,-2.23394e-06
55,49,4.58623,-1.94341e-06
56,49,4.63283,-1.66038e-06
57,49,4.67902,-1.3874e-06
58,49,4.72478,-1.12715e-06
59,49,4.77007,-8.8245e-07
60,49,4.81486,-6.56269e-07
61,49,4.8591,-4.51687e-07
62,49,4.90278,-2.71902e-07
63,49,4.94586,-1.20213e-07
1,50,2.2186,-4.8882e-07
2,50,2.25352,-9.56607e-07
3,50,2.28898,-1.40402e-06
4,50,2.32497,-1.83167e-06
5,50,2.36149,-2.24017e-06
6,50,2.39854,-2.63004e-06
7,50,2.43612,-3.00177e-06
8,50,2.47422,-3.3558e-06
9,50,2.51283,-3.69248e-06
10,50,2.55196,-4.01214e-06
11,50,2.59161,-4.31502e-06
12,50,2.63176,-4.6013e-06
13,50,2.67241,-4.87112e-06
14,50,2.71355,-5.12458e-06
15,50,2.75518,-5.3617e-06
16,50,2.79729,-5.5825e-06
17,50,2.83988,-5.78693e-06
18,50,2.88292,-5.97495e-06
19,50,2.92642,-6.14644e-06
20,50,2.97037,-6.30132e-06
21,50,3.01475,-6.43947e-06
22,50,3.05955,-6.56074e-06
23,50,3.10476,-6.66501e-06
24,50,3.15037,-6.75215e-06
25,50,3.19637,-6.82204e-06
26,50,3.24273,-6.87457e-06
27,50,3.28945,-6.90963e-06
28,50,3.33651,-6.92717e-06
29,50,3.38389,-6.92712e-06
30,50,3.43158,-6.90947e-06
31,50,3.47955,-6.87425e-06
32,50,3.5278,-6.8215e-06
33,50,3.57629,-6.75134e-06
34,50,3.62502,-6.6639e-06
35,50,3.67396,-6.5594e-06
36,50,3.72308,-6.4381e-06
37,50,3.77237,-6.30031e-06
38,50,3.8218,-6.14642e-06
39,50,3.87135,-5.9769e-06
40,50,3.921,-5.79228e-06
41,50,3.97071,-5.59316e-06
42,50,4.02047,-5.38025e-06
43,50,4.07025,-5.15434e-06
44,50,4.12001,-4.9163e-06
45,50,4.16974,-4.6671e-06
46,50,4.2194,-4.40783e-06
47,50,4.26897,-4.13969e-06
48,50,4.31841,-3.86396e-06
49,50,4.3677,-3.58207e-06
50,50,4.41681,-3.29557e-06
51,50,4.46569,-3.00614e-06
52,50,4.51434,-2.71557e-06
53,50,4.5627,-2.42583e-06
54,50,4.61075,-2.13901e-06
55,50,4.65846,-1.85735e-06
56,50,4.70579,-1.58326e-06
57,50,4.75271,-1.31928e-06
58,50,4.79919,-1.06811e-06
59,50,4.84519,-8.32622e-07
60,50,4.89068,-6.15812e-07
61,50,4.93562,-4.20825e-07
62,50,4.97999,-2.50927e-07
63,50,5.02375,-1.09496e-07
1,51,2.25353,-4.75146e-07
2,51,2.28901,-9.29031e-07
3,51,2.32503,-1.36242e-06
4,51,2.36159,-1.77603e-06
5,51,2.39868,-2.17056e-06
6,51,2.43632,-2.54663e-06
7,51,2.47448,-2.90481e-06
8,51,2.51318,-3.24559e-06
9,51,2.5524,-3.56939e-06
10,51,2.59215,-3.87658e-06
11,51,2.63242,-4.16745e-06
12,51,2.6732,-4.44222e-06
13,51,2.71449,-4.70105e-06
14,51,2.75628,-4.94406e-06
15,51,2.79857,-5.17132e-06
16,51,2.84134,-5.38285e-06
17,51,2.8846,-5.57862e-06
18,51,2.92832,-5.75859e-06
19,51,2.97251,-5.92269e-06
20,51,3.01715,-6.07082e-06
21,51,3.06222,-6.20286e-06
22,51,3.10773,-6.31871e-06
23,51,3.15366,-6.41823e-06
24,51,3.19998,-6.5013e-06
25,51,3.2467,-6.5678e-06
26,51,3.29379,-6.61762e-06
27,51,3.34125,-6.65067e-06
28,51,3.38905,-6.66688e-06
29,51,3.43718,-6.66619e-06
30,51,3.48562,-6.64858e-06
31,51,3.53435,-6.61407e-06
32,51,3.58335,-6.56271e-06
33,51,3.63261,-6.49458e-06
34,51,3.68211,-6.40983e-06
35,51,3.73181,-6.30864e-06
36,51,3.78171,-6.19127e-06
37,51,3.83177,-6.058e-06
38,51,3.88198,-5.90921e-06
39,51,3.93232,-5.74534e-06
40,51,3.98274,-5.56688e-06
41,51,4.03324,-5.37443e-06
42,51,4.08378,-5.16865e-06
43,51,4.13434,-4.9503e-06
44,51,4.18489,-4.72021e-06
45,51,4.2354,-4.47933e-06
46,51,4.28585,-4.2287e-06
47,51,4.3362,-3.96947e-06
48,51,4.38642,-3.7029e-06
49,51,4.43648,-3.43038e-06
50,51,4.48636,-3.15341e-06
51,51,4.53602,-2.87363e-06
52,51,4.58543,-2.59282e-06
53,51,4.63455,-2.31289e-06
54,51,4.68336,-2.03593e-06
55,51,4.73182,-1.76415e-06
56,51,4.77989,-1.49995e-06
57,51,4.82755,-1.24589e-06
58,51,4.87476,-1.00468e-06
59,51,4.92149,-7.79225e-07
60,51,4.9677,-5.72563e-07
61,51,5.01335,-3.87905e-07
62,51,5.05842,-2.28595e-07
63,51,5.10286,-9.81043e-08
1,52,2.28902,-4.59487e-07
2,52,2.32506,-8.97497e-07
3,52,2.36164,-1.31492e-06
4,52,2.39878,-1.7126e-06
5,52,2.43646,-2.09134e-06
6,52,2.47468,-2.45185e-06
7,52,2.51345,-2.79479e-06
8,52,2.55276,-3.12072e-06
9,52,2.5926,-3.43014e-06
10,52,2.63297,-3.72344e-06
11,52,2.67387,-4.00097e-06
12,52,2.7153,-4.26298e-06
13,52,2.75724,-4.50966e-06
14,52,2.79969,-4.74117e-06
15,52,2.84264,-4.95758e-06
16,52,2.88609,-5.15892e-06
17,52,2.93002,-5.34521e-06
18,52,2.97444,-5.5164e-06
19,52,3.01932,-5.67243e-06
20,52,3.06466,-5.81321e-06
21,52,3.11045,-5.93866e-06
22,52,3.15667,-6.04864e-06
23,52,3.20332,-6.14304e-06
24,52,3.25038,-6.22175e-06
25,52,3.29783,-6.28465e-06
26,52,3.34566,-6.33164e-06
27,52,3.39387,-6.36261e-06
28,52,3.44242,-6.37749e-06
29,52,3.4913,-6.37624e-06
30,52,3.54051,-6.35883e-06
31,52,3.59,-6.32526e-06
32,52,3.63978,-6.27558e-06
33,52,3.68982,-6.20986e-06
34,52,3.74009,-6.12823e-06
35,52,3.79058,-6.03087e-06
36,52,3.84126,-5.918e-06
37,52,3.89212,-5.7899e-06
38,52,3.94312,-5.64692e-06
39,52,3.99424,-5.48946e-06
40,52,4.04546,-5.31801e-06
41,52,4.09676,-5.13311e-06
42,52,4.14809,-4.9354e-06
43,52,4.19945,-4.72559e-06
44,52,4.25079,-4.50449e-06
45,52,4.3021,-4.273e-06
46,52,4.35334,-4.03212e-06
47,52,4.40448,-3.78294e-06
48,52,4.45549,-3.5267e-06
49,52,4.50635,-3.26471e-06
50,52,4.55701,-2.99845e-06
51,52,4.60745,-2.7295e-06
52,52,4.65764,-2.4596e-06
53,52,4.70753,-2.19063e-06
54,52,4.75711,-1.92462e-06
55,52,4.80633,-1.66379e-06
56,52,4.85517,-1.41051e-06
57,52,4.90358,-1.16732e-06
58,52,4.95153,-9.36974e-07
59,52,4.99899,-7.22379e-07
60,52,5.04593,-5.26639e-07
61,52,5.0923,-3.53029e-07
62,52,5.13807,-2.04984e-07
63,52,5.18322,-8.60781e-08
1,53,2.32507,-4.41691e-07
2,53,2.36167,-8.61707e-07
3,53,2.39883,-1.26109e-06
4,53,2.43655,-1.64082e-06
5,53,2.47483,-2.00181e-06
6,53,2.51365,-2.34491e-06
7,53,2.55303,-2.67084e-06
8,53,2.59296,-2.98025e-06
9,53,2.63343,-3.2737e-06
10,53,2.67444,-3.55163e-06
11,53,2.71598,-3.81444e-06
12,53,2.75806,-4.0624e-06
13,53,2.80066,-4.29574e-06
14,53,2.84378,-4.51463e-06
15,53,2.88741,-4.71916e-06
16,53,2.93154,-4.9094e-06
17,53,2.97617,-5.08535e-06
18,53,3.02128,-5.24699e-06
19,53,3.06687,-5.39426e-06
20,53,3.11292,-5.5271e-06
21,53,3.15943,-5.6454e-06
22,53,3.20638,-5.74907e-06
23,53,3.25376,-5.83799e-06
24,53,3.30156,-5.91205e-06
25,53,3.34976,-5.97112e-06
26,53,3.39835,-6.01512e-06
27,53,3.44731,-6.04395e-06
28,53,3.49663,-6.05753e-06
29,53,3.54629,-6.05581e-06
30,53,3.59626,-6.03875e-06
31,53,3.64654,-6.00636e-06
32,53,3.6971,-5.95868e-06
33,53,3.74792,-5.89576e-06
34,53,3.79899,-5.81772e-06
35,53,3.85027,-5.72472e-06
36,53,3.90175,-5.61697e-06
37,53,3.95341,-5.49472e-06
38,53,4.00521,-5.35829e-06
39,53,4.05714,-5.20807e-06
40,53,4.10917,-5.0445e-06
41,53,4.16127,-4.8681e-06
42,53,4.21342,-4.67946e-06
43,53,4.26558,-4.47927e-06
44,53,4.31774,-4.26827e-06
45,53,4.36985,-4.04732e-06
46,53,4.4219,-3.81737e-06
47,53,4.47384,-3.57948e-06
48,53,4.52566,-3.33479e-06
49,53,4.57731,-3.08461e-06
50,53,4.62877,-2.83032e-06
51,53,4.68001,-2.57346e-06
52,53,4.73098,-2.31572e-06
53,53,4.78167,-2.05892e-06
54,53,4.83202,-1.80507e-06
55,53,4.88202,-1.55632e-06
56,53,4.93162,-1.31502e-06
57,53,4.9808,-1.08372e-06
58,53,5.0295,-8.65153e-07
59,53,5.07771,-6.6227e-07
60,53,5.12539,-4.78219e-07
61,53,5.17249,-3.16351e-07
62,53,5.21899,-1.80204e-07
63,53,5.26484,-7.34765e-08
1,54,2.36168,-4.21584e-07
2,54,2.39886,-8.2132e-07
3,54,2.43661,-1.20042e-06
4,54,2.47492,-1.56003e-06
5,54,2.5138,-1.90122e-06
6,54,2.55324,-2.22492e-06
7,54,2.59323,-2.53198e-06
8,54,2.63379,-2.82311e-06
9,54,2.6749,-3.09894e-06
10,54,2.71655,-3.35998e-06
11,54,2.75875,-3.60662e-06
12,54,2.80149,-3.8392e-06
13,54,2.84476,-4.05796e-06
14,54,2.88856,-4.26309e-06
15,54,2.93288,-4.4547e-06
16,54,2.9777,-4.63286e-06
17,54,3.02303,-4.7976e-06
18,54,3.06886,-4.94889e-06
19,54,3.11516,-5.0867e-06
20,54,3.16194,-5.21097e-06
21,54,3.20918,-5.32159e-06
22,54,3.25688,-5.41848e-06
23,54,3.305,-5.50152e-06
24,54,3.35355,-5.57062e-06
25,54,3.40251,-5.62565e-06
26,54,3.45187,-5.66652e-06
27,54,3.5016,-5.69313e-06
28,54,3.55169,-5.70542e-06
29,54,3.60213,-5.70331e-06
30,54,3.65289,-5.68679e-06
31,54,3.70396,-5.65584e-06
32,54,3.75532,-5.61048e-06
33,54,3.80695,-5.55077e-06
34,54,3.85881,-5.47682e-06
35,54,3.91091,-5.38875e-06
36,54,3.9632,-5.28676e-06
37,54,4.01567,-5.17109e-06
38,54,4.06829,-5.04202e-06
39,54,4.12103,-4.89991e-06
40,54,4.17388,-4.74516e-06
41,54,4.2268,-4.57827e-06
42,54,4.27977,-4.39978e-06
43,54,4.33275,-4.21032e-06
44,54,4.38573,-4.0106e-06
45,54,4.43867,-3.80143e-06
46,54,4.49153,-3.5837e-06
47,54,4.5443,-3.3584e-06
48,54,4.59693,-3.12662e-06
49,54,4.6494,-2.88959e-06
50,54,4.70167,-2.64864e-06
51,54,4.75371,-2.40524e-06
52,54,4.80549,-2.16101e-06
53,54,4.85697,-1.91771e-06
54,54,4.90812,-1.67727e-06
55,54,4.9589,-1.44182e-06
56,54,5.00929,-1.21366e-06
57,54,5.05923,-9.95296e-07
58,54,5.10871,-7.89477e-07
59,54,5.15768,-5.99164e-07
60,54,5.2061,-4.27557e-07
61,54,5.25395,-2.7809e-07
62,54,5.30117,-1.54416e-07
63,54,5.34775,-6.03842e-08
1,55,2.39887,-3.98962e-07
2,55,2.43664,-7.75935e-07
3,55,2.47498,-1.13234e-06
4,55,2.5139,-1.46952e-06
5,55,2.55338,-1.78867e-06
6,55,2.59344,-2.09089e-06
7,55,2.63407,-2.37711e-06
8,55,2.67527,-2.64814e-06
9,55,2.71702,-2.90464e-06
10,55,2.75933,-3.14717e-06
11,55,2.8022,-3.37617e-06
12,55,2.84561,-3.59199e-06
13,55,2.88956,-3.7949e-06
14,55,2.93405,-3.9851e-06
15,55,2.97906,-4.16271e-06
16,55,3.0246,-4.3278e-06
17,55,3.07064,-4.48042e-06
18,55,3.11718,-4.62056e-06
19,55,3.16422,-4.74818e-06
20,55,3.21174,-4.86322e-06
21,55,3.25972,-4.9656e-06
22,55,3.30816,-5.05523e-06
23,55,3.35705,-5.132e-06
24,55,3.40637,-5.19581e-06
25,55,3.4561,-5.24656e-06
26,55,3.50623,-5.28415e-06
27,55,3.55674,-5.30849e-06
28,55,3.60763,-5.31949e-06
29,55,3.65886,-5.31711e-06
30,55,3.71042,-5.3013e-06
31,55,3.76229,-5.27204e-06
32,55,3.81446,-5.22937e-06
33,55,3.8669,-5.17331e-06
34,55,3.91958,-5.10395e-06
35,55,3.97249,-5.02143e-06
36,55,4.02561,-4.92589e-06
37,55,4.0789,-4.81755e-06
38,55,4.13235,-4.69669e-06
39,55,4.18593,-4.56361e-06
40,55,4.23961,-4.41869e-06
41,55,4.29336,-4.26238e-06
42,55,4.34717,-4.09518e-06
43,55,4.40099,-3.91767e-06
44,55,4.4548,-3.73051e-06
45,55,4.50856,-3.53445e-06
46,55,4.56226,-3.3303e-06
47,55,4.61586,-3.11901e-06
48,55,4.66932,-2.90159e-06
49,55,4.72261,-2.67918e-06
50,55,4.77571,-2.45306e-06
51,55,4.82857,-2.22459e-06
52,55,4.88116,-1.99533e-06
53,55,4.93345,-1.76695e-06
54,55,4.98541,-1.54132e-06
55,55,5.03699,-1.32048e-06
56,55,5.08817,-1.10667e-06
57,55,5.1389,-9.02378e-07
58,55,5.18916,-7.10308e-07
59,55,5.2389,-5.33438e-07
60,55,5.28808,-3.75012e-07
61,55,5.33668,-2.38552e-07
62,55,5.38466,-1.27845e-07
63,55,5.43197,-4.69205e-08
1,56,2.43665,-3.73584e-07
2,56,2.47501,-7.25082e-07
3,56,2.51396,-1.05617e-06
4,56,2.55348,-1.3684e-06
5,56,2.59359,-1.66317e-06
6,56,2.63429,-1.9417e-06
7,56,2.67555,-2.20502e-06
8,56,2.7174,-2.45402e-06
9,56,2.75981,-2.68941e-06
10,56,2.80279,-2.91179e-06
11,56,2.84633,-3.12162e-06
12,56,2.89042,-3.31928e-06
13,56,2.93507,-3.50503e-06
14,56,2.98025,-3.67909e-06
15,56,3.02598,-3.84159e-06
16,56,3.07223,-3.99261e-06
17,56,3.119,-4.13219e-06
18,56,3.16627,-4.26034e-06
19,56,3.21405,-4.37702e-06
20,56,3.26232,-4.48217e-06
21,56,3.31106,-4.57572e-06
22,56,3.36026,-4.6576e-06
23,56,3.40992,-4.72769e-06
24,56,3.46001,-4.78589e-06
25,56,3.51052,-4.83212e-06
26,56,3.56144,-4.86627e-06
27,56,3.61275,-4.88825e-06
28,56,3.66444,-4.898e-06
29,56,3.71648,-4.89544e-06
30,56,3.76885,-4.88053e-06
31,56,3.82154,-4.85326e-06
32,56,3.87453,-4.81363e-06
33,56,3.92779,-4.76168e-06
34,56,3.98131,-4.69747e-06
35,56,4.03505,-4.62112e-06
36,56,4.089,-4.53275e-06
37,56,4.14314,-4.43257e-06
38,56,4.19743,-4.32081e-06
39,56,4.25185,-4.19775e-06
40,56,4.30637,-4.06372e-06
41,56,4.36098,-3.91914e-06
42,56,4.41562,-3.76445e-06
43,56,4.47029,-3.60019e-06
44,56,4.52495,-3.42695e-06
45,56,4.57956,-3.24541e-06
46,56,4.63411,-3.05633e-06
47,56,4.68855,-2.86057e-06
48,56,4.74285,-2.65907e-06
49,56,4.79698,-2.45289e-06
50,56,4.85091,-2.24319e-06
51,56,4.90461,-2.03127e-06
52,56,4.95803,-1.81857e-06
53,56,5.01114,-1.60667e-06
54,56,5.06392,-1.39735e-06
55,56,5.11631,-1.19255e-06
56,56,5.1683,-9.94429e-07
57,56,5.21983,-8.05404e-07
58,56,5.27088,-6.28142e-07
59,56,5.3214,-4.65607e-07
60,56,5.37136,-3.21077e-07
61,56,5.42072,-1.98163e-07
62,56,5.46945,-1.00806e-07
63,56,5.51751,-3.32527e-08
1,57,2.47502,-3.45154e-07
2,57,2.51399,-6.68192e-07
3,57,2.55354,-9.71103e-07
4,57,2.5937,-1.25569e-06
5,57,2.63444,-1.52356e-06
6,57,2.67577,-1.77605e-06
7,57,2.71769,-2.01432e-06
8,57,2.76019,-2.2393e-06
9,57,2.80327,-2.45175e-06
10,57,2.84692,-2.65229e-06
11,57,2.89115,-2.84139e-06
12,57,2.93594,-3.01944e-06
13,57,2.98129,-3.18671e-06
14,57,3.02719,-3.3434e-06
15,57,3.07363,-3.48966e-06
16,57,3.12061,-3.62558e-06
17,57,3.16811,-3.75118e-06
18,57,3.21614,-3.86648e-06
19,57,3.26466,-3.97144e-06
20,57,3.31369,-4.06603e-06
21,57,3.3632,-4.15017e-06
22,57,3.41318,-4.22377e-06
23,57,3.46362,-4.28675e-06
24,57,3.5145,-4.33902e-06
25,57,3.56581,-4.38047e-06
26,57,3.61753,-4.41102e-06
27,57,3.66965,-4.43058e-06
28,57,3.72214,-4.43908e-06
29,57,3.775,-4.43645e-06
30,57,3.8282,-4.42264e-06
31,57,3.88172,-4.39765e-06
32,57,3.93555,-4.36145e-06
33,57,3.98965,-4.31409e-06
34,57,4.044,-4.25561e-06
35,57,4.0986,-4.18609e-06
36,57,4.1534,-4.10567e-06
37,57,4.20838,-4.01451e-06
38,57,4.26353,-3.9128e-06
39,57,4.31881,-3.80079e-06
40,57,4.37419,-3.67879e-06
41,57,4.42965,-3.54715e-06
42,57,4.48516,-3.40628e-06
43,57,4.54069,-3.25665e-06
44,57,4.59621,-3.09878e-06
45,57,4.65168,-2.9333e-06
46,57,4.70708,-2.76089e-06
47,57,4.76238,-2.58231e-06
48,57,4.81754,-2.39842e-06
49,57,4.87252,-2.21018e-06
50,57,4.9273,-2.01866e-06
51,57,4.98184,-1.82504e-06
52,57,5.03611,-1.63064e-06
53,57,5.09006,-1.43694e-06
54,57,5.14366,-1.24558e-06
55,57,5.19689,-1.05838e-06
56,57,5.24969,-8.7741e-07
57,57,5.30203,-7.04966e-07
58,57,5.35388,-5.43644e-07
59,57,5.4052,-3.96367e-07
60,57,5.45595,-2.66426e-07
61,57,5.50609,-1.57512e-07
62,57,5.55558,-7.37381e-08
63,57,5.6044,-1.96169e-08
1,58,2.514,-3.13308e-07
2,58,2.55358,-6.04569e-07
3,58,2.59376,-8.76161e-07
4,58,2.63454,-1.1302e-06
5,58,2.67592,-1.36847e-06
6,58,2.71791,-1.59249e-06
7,58,2.76049,-1.80346e-06
8,58,2.80366,-2.00237e-06
9,58,2.84741,-2.19001e-06
10,58,2.89176,-2.36698e-06
11,58,2.93668,-2.53377e-06
12,58,2.98217,-2.69074e-06
13,58,3.02824,-2.83817e-06
14,58,3.07486,-2.97626e-06
15,58,3.12203,-3.10514e-06
16,58,3.16975,-3.22489e-06
17,58,3.218,-3.33555e-06
18,58,3.26678,-3.43713e-06
19,58,3.31608,-3.5296e-06
20,58,3.36587,-3.61292e-06
21,58,3.41616,-3.68702e-06
22,58,3.46693,-3.75183e-06
23,58,3.51816,-3.80727e-06
24,58,3.56984,-3.85324e-06
25,58,3.62196,-3.88966e-06
26,58,3.6745,-3.91644e-06
27,58,3.72744,-3.9335e-06
28,58,3.78076,-3.94077e-06
29,58,3.83445,-3.93818e-06
30,58,3.88849,-3.92569e-06
31,58,3.94285,-3.90328e-06
32,58,3.99752,-3.87092e-06
33,58,4.05247,-3.82865e-06
34,58,4.10769,-3.7765e-06
35,58,4.16314,-3.71453e-06
36,58,4.2188,-3.64285e-06
37,58,4.27466,-3.5616e-06
38,58,4.33067,-3.47095e-06
39,58,4.38682,-3.37111e-06
40,58,4.44307,-3.26234e-06
41,58,4.49941,-3.14495e-06
42,58,4.55579,-3.01928e-06
43,58,4.6122,-2.88575e-06
44,58,4.66859,-2.74483e-06
45,58,4.72494,-2.59705e-06
46,58,4.78121,-2.443e-06
47,58,4.83738,-2.28338e-06
48,58,4.8934,-2.11894e-06
49,58,4.94926,-1.95052e-06
50,58,5.0049,-1.77908e-06
51,58,5.0603,-1.60568e-06
52,58,5.11541,-1.4315e-06
53,58,5.17022,-1.25788e-06
54,58,5.22466,-1.0863e-06
55,58,5.27872,-9.18461e-07
56,58,5.33236,-7.5625e-07
57,58,5.38553,-6.01836e-07
58,58,5.43819,-4.57691e-07
59,58,5.49032,-3.2665e-07
60,58,5.54186,-2.11975e-07
61,58,5.5928,-1.17415e-07
62,58,5.64307,-4.72616e-08
63,58,5.69265,-6.34996e-09
1,59,2.55359,-2.77574e-07
2,59,2.59379,-5.33329e-07
3,59,2.6346,-7.70142e-07
4,59,2.67603,-9.90469e-07
5,59,2.71806,-1.19632e-06
6,59,2.76071,-1.3893e-06
7,59,2.80396,-1.57067e-06
8,59,2.84781,-1.74144e-06
9,59,2.89225,-1.90235e-06
10,59,2.9373,-2.05402e-06
11,59,2.98292,-2.19689e-06
12,59,3.02914,-2.33132e-06
13,59,3.07592,-2.45755e-06
14,59,3.12328,-2.57578e-06
15,59,3.1712,-2.68611e-06
16,59,3.21967,-2.78863e-06
17,59,3.26868,-2.88337e-06
18,59,3.31823,-2.97034e-06
19,59,3.3683,-3.04952e-06
20,59,3.41888,-3.12085e-06
21,59,3.46996,-3.1843e-06
22,59,3.52153,-3.23977e-06
23,59,3.57356,-3.28721e-06
24,59,3.62606,-3.32653e-06
25,59,3.679,-3.35765e-06
26,59,3.73236,-3.38048e-06
27,59,3.78614,-3.39496e-06
28,59,3.8403,-3.40101e-06
29,59,3.89484,-3.39858e-06
30,59,3.94972,-3.38762e-06
31,59,4.00494,-3.3681e-06
32,59,4.06047,-3.34001e-06
33,59,4.11629,-3.30335e-06
34,59,4.17238,-3.25815e-06
35,59,4.2287,-3.20448e-06
36,59,4.28524,-3.14239e-06
37,59,4.34197,-3.07201e-06
38,59,4.39887,-2.99348e-06
39,59,4.4559,-2.90698e-06
40,59,4.51304,-2.81271e-06
41,59,4.57026,-2.71093e-06
42,59,4.62754,-2.60195e-06
43,59,4.68483,-2.48611e-06
44,59,4.74211,-2.36379e-06
45,59,4.79934,-2.23547e-06
46,59,4.8565,-2.10165e-06
47,59,4.91356,-1.9629e-06
48,59,4.97046,-1.81988e-06
49,59,5.0272,-1.67333e-06
50,59,5.08371,-1.52405e-06
51,59,5.13998,-1.37297e-06
52,59,5.19597,-1.22112e-06
53,59,5.25164,-1.06966e-06
54,59,5.30694,-9.19918e-07
55,59,5.36185,-7.73376e-07
56,59,5.41633,-6.31747e-07
57,59,5.47034,-4.97e-07
58,59,5.52383,-3.71422e-07
59,59,5.57678,-2.57691e-07
60,59,5.62914,-1.5897e-07
61,59,5.68087,-7.90112e-08
62,59,5.73194,-2.22636e-08
63,59,5.7823,6.05647e-09
1,60,2.5938,-2.37316e-07
2,60,2.63464,-4.53316e-07
3,60,2.67609,-6.51523e-07
4,60,2.71817,-8.34764e-07
5,60,2.76087,-1.00522e-06
6,60,2.80418,-1.16454e-06
7,60,2.84811,-1.31399e-06
8,60,2.89265,-1.4545e-06
9,60,2.9378,-1.5868e-06
10,60,2.98355,-1.71143e-06
11,60,3.0299,-1.82879e-06
12,60,3.07684,-1.9392e-06
13,60,3.12436,-2.04287e-06
14,60,3.17247,-2.13996e-06
15,60,3.22114,-2.23058e-06
16,60,3.27037,-2.31479e-06
17,60,3.32016,-2.39263e-06
18,60,3.37048,-2.46408e-06
19,60,3.42134,-2.52914e-06
20,60,3.47272,-2.58776e-06
21,60,3.5246,-2.63989e-06
22,60,3.57698,-2.68548e-06
23,60,3.62984,-2.72445e-06
24,60,3.68316,-2.75673e-06
25,60,3.73693,-2.78226e-06
26,60,3.79114,-2.80096e-06
27,60,3.84576,-2.81277e-06
28,60,3.90078,-2.81762e-06
29,60,3.95617,-2.81546e-06
30,60,4.01192,-2.80624e-06
31,60,4.06801,-2.78995e-06
32,60,4.12442,-2.76656e-06
33,60,4.18112,-2.73606e-06
34,60,4.23808,-2.69849e-06
35,60,4.29529,-2.65387e-06
36,60,4.35272,-2.60226e-06
37,60,4.41035,-2.54376e-06
38,60,4.46814,-2.47847e-06
39,60,4.52607,-2.40653e-06
40,60,4.58411,-2.32811e-06
41,60,4.64224,-2.24342e-06
42,60,4.70041,-2.15269e-06
43,60,4.7586,-2.05621e-06
44,60,4.81678,-1.9543e-06
45,60,4.87492,-1.84732e-06
46,60,4.93298,-1.7357e-06
47,60,4.99093,-1.6199e-06
48,60,5.04874,-1.50046e-06
49,60,5.10636,-1.37798e-06
50,60,5.16377,-1.25313e-06
51,60,5.22093,-1.12668e-06
52,60,5.2778,-9.9949e-07
53,60,5.33434,-8.72523e-07
54,60,5.39051,-7.46889e-07
55,60,5.44629,-6.23856e-07
56,60,5.50162,-5.04887e-07
57,60,5.55648,-3.91693e-07
58,60,5.61082,-2.86294e-07
59,60,5.6646,-1.91115e-07
60,60,5.71778,-1.09106e-07
61,60,5.77033,-4.39045e-08
62,60,5.8222,-4.23048e-11
63,60,5.87336,1.68593e-08
1,61,2.63465,-1.91617e-07
2,61,2.67612,-3.62945e-07
3,61,2.71823,-5.18325e-07
4,61,2.76098,-6.60909e-07
5,61,2.80435,-7.92929e-07
6,61,2.84834,-9.15972e-07
7,61,2.89296,-1.03118e-06
8,61,2.93821,-1.13938e-06
9,61,2.98407,-1.2412e-06
10,61,3.03054,-1.33707e-06
11,61,3.07761,-1.42735e-06
12,61,3.12529,-1.51227e-06
13,61,3.17357,-1.59202e-06
14,61,3.22242,-1.66672e-06
15,61,3.27186,-1.73645e-06
16,61,3.32187,-1.80127e-06
17,61,3.37244,-1.86118e-06
18,61,3.42356,-1.9162e-06
19,61,3.47522,-1.9663e-06
20,61,3.52741,-2.01145e-06
21,61,3.58011,-2.05161e-06
22,61,3.63331,-2.08672e-06
23,61,3.687,-2.11674e-06
24,61,3.74116,-2.1416e-06
25,61,3.79578,-2.16124e-06
26,61,3.85084,-2.17561e-06
27,61,3.90632,-2.18464e-06
28,61,3.96221,-2.1883e-06
29,61,4.01847,-2.18652e-06
30,61,4.0751,-2.17928e-06
31,61,4.13208,-2.16654e-06
32,61,4.18937,-2.1483e-06
33,61,4.24696,-2.12454e-06
34,61,4.30482,-2.09527e-06
35,61,4.36294,-2.06051e-06
36,61,4.42127,-2.02032e-06
37,61,4.4798,-1.97474e-06
38,61,4.53851,-1.92387e-06
39,61,4.59735,-1.8678e-06
40,61,4.6563,-1.80665e-06
41,61,4.71534,-1.74059e-06
42,61,4.77443,-1.66979e-06
43,61,4.83354,-1.59446e-06
44,61,4.89264,-1.51486e-06
45,61,4.95169,-1.43124e-06
46,61,5.01067,-1.34394e-06
47,61,5.06953,-1.25332e-06
48,61,5.12825,-1.15978e-06
49,61,5.18678,-1.06378e-06
50,61,5.24509,-9.65852e-07
51,61,5.30315,-8.66572e-07
52,61,5.36091,-7.66609e-07
53,61,5.41834,-6.66719e-07
54,61,5.4754,-5.67769e-07
55,61,5.53206,-4.70757e-07
56,61,5.58826,-3.76849e-07
57,61,5.64398,-2.87424e-07
58,61,5.69918,-2.04141e-07
59,61,5.7538,-1.29037e-07
60,61,5.80782,-6.46795e-08
61,61,5.8612,-1.43855e-08
62,61,5.91389,1.74438e-08
63,61,5.96585,2.48765e-08
1,62,2.67614,-1.39029e-07
2,62,2.71827,-2.59928e-07
3,62,2.76104,-3.67914e-07
4,62,2.80445,-4.66195e-07
5,62,2.84851,-5.56786e-07
6,62,2.8932,-6.41009e-07
7,62,2.93852,-7.19762e-07
8,62,2.98448,-7.93675e-07
9,62,3.03106,-8.63201e-07
10,62,3.07826,-9.28668e-07
11,62,3.12608,-9.90317e-07
12,62,3.17451,-1.04832e-06
13,62,3.22354,-1.1028e-06
14,62,3.27317,-1.15385e-06
15,62,3.32339,-1.20152e-06
16,62,3.37418,-1.24584e-06
17,62,3.42555,-1.28682e-06
18,62,3.47747,-1.32446e-06
19,62,3.52995,-1.35875e-06
20,62,3.58296,-1.38965e-06
21,62,3.63649,-1.41715e-06
22,62,3.69053,-1.44119e-06
23,62,3.74506,-1.46174e-06
24,62,3.80008,-1.47876e-06
25,62,3.85556,-1.4922e-06
26,62,3.91148,-1.50202e-06
27,62,3.96784,-1.50818e-06
28,62,4.0246,-1.51063e-06
29,62,4.08175,-1.50935e-06
30,62,4.13928,-1.50431e-06
31,62,4.19715,-1.49547e-06
32,62,4.25534,-1.48283e-06
33,62,4.31384,-1.46639e-06
34,62,4.37261,-1.44613e-06
35,62,4.43164,-1.42209e-06
36,62,4.4909,-1.39427e-06
37,62,4.55035,-1.36272e-06
38,62,4.60998,-1.3275e-06
39,62,4.66975,-1.28866e-06
40,62,4.72963,-1.24629e-06
41,62,4.7896,-1.2005e-06
42,62,4.84962,-1.15139e-06
43,62,4.90966,-1.09912e-06
44,62,4.96969,-1.04385e-06
45,62,5.02967,-9.85756e-07
46,62,5.08957,-9.25064e-07
47,62,5.14936,-8.62014e-07
48,62,5.209,-7.96883e-07
49,62,5.26846,-7.29983e-07
50,62,5.32769,-6.61669e-07
51,62,5.38666,-5.92342e-07
52,62,5.44533,-5.22455e-07
53,62,5.50367,-4.5253e-07
54,62,5.56163,-3.83163e-07
55,62,5.61917,-3.15047e-07
56,62,5.67627,-2.48997e-07
57,62,5.73286,-1.85987e-07
58,62,5.78893,-1.27209e-07
59,62,5.84441,-7.41588e-08
60,62,5.89928,-2.87874e-08
61,62,5.9535,6.2478e-09
62,62,6.00702,2.71316e-08
63,62,6.0598,2.80808e-08
1,63,2.71828,-7.69627e-08
2,63,2.76107,-1.4078e-07
3,63,2.80452,-1.96727e-07
4,63,2.84862,-2.47252e-07
5,63,2.89337,-2.93665e-07
6,63,2.93876,-3.3675e-07
7,63,2.9848,-3.77012e-07
8,63,3.03148,-4.14794e-07
9,63,3.07879,-4.50338e-07
10,63,3.12674,-4.83815e-07
11,63,3.17531,-5.1535e-07
12,63,3.2245,-5.45032e-07
13,63,3.27431,-5.72924e-07
14,63,3.32472,-5.99068e-07
15,63,3.37572,-6.23492e-07
16,63,3.42732,-6.46209e-07
17,63,3.4795,-6.67224e-07
18,63,3.53224,-6.86534e-07
19,63,3.58554,-7.04129e-07
20,63,3.63938,-7.19994e-07
21,63,3.69375,-7.34112e-07
22,63,3.74865,-7.46461e-07
23,63,3.80404,-7.57018e-07
24,63,3.85992,-7.65759e-07
25,63,3.91628,-7.72661e-07
26,63,3.97308,-7.77699e-07
27,63,4.03032,-7.80849e-07
28,63,4.08798,-7.82091e-07
29,63,4.14603,-7.81405e-07
30,63,4.20446,-7.78775e-07
31,63,4.26324,-7.74186e-07
32,63,4.32235,-7.67629e-07
33,63,4.38177,-7.59099e-07
34,63,4.44147,-7.48595e-07
35,63,4.50143,-7.36123e-07
36,63,4.56162,-7.21693e-07
37,63,4.62201,-7.05322e-07
38,63,4.68257,-6.87036e-07
39,63,4.74328,-6.66866e-07
40,63,4.80411,-6.44854e-07
41,63,4.86502,-6.21049e-07
42,63,4.92599,-5.95511e-07
43,63,4.98697,-5.6831e-07
44,63,5.04795,-5.39528e-07
45,63,5.10888,-5.0926e-07
46,63,5.16972,-4.77613e-07
47,63,5.23046,-4.4471e-07
48,63,5.29103,-4.10691e-07
49,63,5.35142,-3.75716e-07
50,63,5.41159,-3.39963e-07
51,63,5.47149,-3.03635e-07
52,63,5.53108,-2.66966e-07
53,63,5.59034,-2.3022e-07
54,63,5.64921,-1.93704e-07
55,63,5.70766,-1.57772e-07
56,63,5.76565,-1.22847e-07
57,63,5.82314,-8.94343e-08
58,63,5.88009,-5.81615e-08
59,63,5.93645,-2.98295e-08
60,63,5.99218,-5.51262e-09
61,63,6.04725,1.32515e-08
62,63,6.10161,2.40521e-08
63,63,6.15523,2.26084e-08
