1,1,1.03174,1.54387e-06
2,1,1.04799,1.52126e-06
3,1,1.06448,1.50428e-06
4,1,1.08122,1.48939e-06
5,1,1.0982,1.4752e-06
6,1,1.11543,1.46107e-06
7,1,1.1329,1.4467e-06
8,1,1.15062,1.43193e-06
9,1,1.16858,1.41668e-06
10,1,1.18678,1.40091e-06
11,1,1.20521,1.3846e-06
12,1,1.22388,1.36775e-06
13,1,1.24279,1.35037e-06
14,1,1.26192,1.33248e-06
15,1,1.28128,1.31409e-06
16,1,1.30087,1.29523e-06
17,1,1.32067,1.27592e-06
18,1,1.34069,1.25619e-06
19,1,1.36092,1.23605e-06
20,1,1.38135,1.21555e-06
21,1,1.40199,1.1947e-06
22,1,1.42283,1.17352e-06
23,1,1.44385,1.15204e-06
24,1,1.46506,1.13029e-06
25,1,1.48645,1.10828e-06
26,1,1.50801,1.08603e-06
27,1,1.52974,1.06357e-06
28,1,1.55162,1.04091e-06
29,1,1.57366,1.01806e-06
30,1,1.59583,9.95049e-07
31,1,1.61815,9.71881e-07
32,1,1.64058,9.48568e-07
33,1,1.66313,9.25121e-07
34,1,1.68579,9.01546e-07
35,1,1.70855,8.77848e-07
36,1,1.7314,8.5403e-07
37,1,1.75432,8.30093e-07
38,1,1.77731,8.06034e-07
39,1,1.80035,7.81849e-07
40,1,1.82344,7.5753e-07
41,1,1.84656,7.33067e-07
42,1,1.8697,7.08446e-07
43,1,1.89284,6.83649e-07
44,1,1.91599,6.58655e-07
45,1,1.93911,6.33439e-07
46,1,1.96221,6.07972e-07
47,1,1.98526,5.82218e-07
48,1,2.00825,5.56137e-07
49,1,2.03117,5.29683e-07
50,1,2.05401,5.028e-07
51,1,2.07674,4.75428e-07
52,1,2.09936,4.47492e-07
53,1,2.12185,4.1891e-07
54,1,2.1442,3.89583e-07
55,1,2.16638,3.59393e-07
56,1,2.1884,3.282e-07
57,1,2.21022,2.95831e-07
58,1,2.23183,2.62072e-07
59,1,2.25322,2.26641e-07
60,1,2.27438,1.89158e-07
61,1,2.29528,1.49071e-07
62,1,2.31591,1.05508e-07
63,1,2.33626,5.6907e-08
1,2,1.04799,3.08259e-06
2,2,1.06449,3.0481e-06
3,2,1.08124,3.01822e-06
4,2,1.09824,2.99039e-06
5,2,1.11549,2.96318e-06
6,2,1.133,2.93578e-06
7,2,1.15075,2.90775e-06
8,2,1.16874,2.87883e-06
9,2,1.18698,2.8489e-06
10,2,1.20547,2.81789e-06
11,2,1.22419,2.78577e-06
12,2,1.24316,2.75256e-06
13,2,1.26236,2.71826e-06
14,2,1.2818,2.68291e-06
15,2,1.30146,2.64655e-06
16,2,1.32135,2.60923e-06
17,2,1.34147,2.57099e-06
18,2,1.3618,2.53187e-06
19,2,1.38235,2.49193e-06
20,2,1.40311,2.45122e-06
21,2,1.42407,2.40978e-06
22,2,1.44523,2.36766e-06
23,2,1.46659,2.3249e-06
24,2,1.48814,2.28156e-06
25,2,1.50986,2.23766e-06
26,2,1.53176,2.19326e-06
27,2,1.55383,2.14837e-06
28,2,1.57606,2.10305e-06
29,2,1.59844,2.05732e-06
30,2,1.62097,2.01121e-06
31,2,1.64363,1.96473e-06
32,2,1.66642,1.91792e-06
33,2,1.68933,1.87078e-06
34,2,1.71234,1.82334e-06
35,2,1.73546,1.7756e-06
36,2,1.75866,1.72756e-06
37,2,1.78195,1.67922e-06
38,2,1.8053,1.63059e-06
39,2,1.8287,1.58164e-06
40,2,1.85215,1.53236e-06
41,2,1.87564,1.48274e-06
42,2,1.89914,1.43274e-06
43,2,1.92265,1.38233e-06
44,2,1.94616,1.33146e-06
45,2,1.96965,1.28009e-06
46,2,1.99311,1.22815e-06
47,2,2.01652,1.17559e-06
48,2,2.03988,1.12231e-06
49,2,2.06316,1.06823e-06
50,2,2.08635,1.01324e-06
51,2,2.10945,9.57214e-07
52,2,2.13242,9.00017e-07
53,2,2.15527,8.41482e-07
54,2,2.17797,7.81417e-07
55,2,2.2005,7.19595e-07
56,2,2.22286,6.55746e-07
57,2,2.24502,5.89539e-07
58,2,2.26698,5.20566e-07
59,2,2.28871,4.48306e-07
60,2,2.31019,3.72069e-07
61,2,2.33142,2.90908e-07
62,2,2.35238,2.03446e-07
63,2,2.37305,1.07583e-07
1,3,1.0645,4.62376e-06
2,3,1.08126,4.58172e-06
3,3,1.09827,4.54203e-06
4,3,1.11554,4.50328e-06
5,3,1.13306,4.46442e-06
6,3,1.15084,4.42474e-06
7,3,1.16887,4.38384e-06
8,3,1.18715,4.34145e-06
9,3,1.20568,4.29744e-06
10,3,1.22445,4.25174e-06
11,3,1.24347,4.20433e-06
12,3,1.26274,4.15523e-06
13,3,1.28224,4.10446e-06
14,3,1.30198,4.05209e-06
15,3,1.32196,3.99817e-06
16,3,1.34216,3.94277e-06
17,3,1.36259,3.88595e-06
18,3,1.38325,3.82778e-06
19,3,1.40412,3.76834e-06
20,3,1.42521,3.70769e-06
21,3,1.4465,3.64591e-06
22,3,1.46799,3.58306e-06
23,3,1.48969,3.51921e-06
24,3,1.51157,3.45442e-06
25,3,1.53364,3.38875e-06
26,3,1.55588,3.32226e-06
27,3,1.5783,3.25499e-06
28,3,1.60088,3.187e-06
29,3,1.62361,3.11832e-06
30,3,1.64649,3.049e-06
31,3,1.66951,2.97907e-06
32,3,1.69266,2.90856e-06
33,3,1.71593,2.83749e-06
34,3,1.73931,2.76588e-06
35,3,1.76279,2.69373e-06
36,3,1.78636,2.62106e-06
37,3,1.81001,2.54787e-06
38,3,1.83373,2.47413e-06
39,3,1.8575,2.39984e-06
40,3,1.88132,2.32498e-06
41,3,1.90517,2.2495e-06
42,3,1.92905,2.17336e-06
43,3,1.95293,2.09653e-06
44,3,1.97681,2.01892e-06
45,3,2.00067,1.94047e-06
46,3,2.0245,1.86108e-06
47,3,2.04828,1.78067e-06
48,3,2.072,1.6991e-06
49,3,2.09565,1.61625e-06
50,3,2.11921,1.53197e-06
51,3,2.14267,1.44606e-06
52,3,2.166,1.35833e-06
53,3,2.18921,1.26855e-06
54,3,2.21226,1.17642e-06
55,3,2.23515,1.08163e-06
56,3,2.25786,9.83793e-07
57,3,2.28038,8.82444e-07
58,3,2.30268,7.77018e-07
59,3,2.32475,6.66809e-07
60,3,2.34657,5.50918e-07
61,3,2.36814,4.28166e-07
62,3,2.38943,2.96978e-07
63,3,2.41042,1.55213e-07
1,4,1.08126,6.17211e-06
2,4,1.09829,6.12451e-06
3,4,1.11557,6.07704e-06
4,4,1.13311,6.02899e-06
5,4,1.15091,5.97972e-06
6,4,1.16896,5.92877e-06
7,4,1.18728,5.87581e-06
8,4,1.20584,5.82064e-06
9,4,1.22466,5.76315e-06
10,4,1.24374,5.70331e-06
11,4,1.26306,5.64112e-06
12,4,1.28262,5.5766e-06
13,4,1.30243,5.50982e-06
14,4,1.32249,5.44084e-06
15,4,1.34278,5.36975e-06
16,4,1.3633,5.29663e-06
17,4,1.38405,5.22157e-06
18,4,1.40503,5.14467e-06
19,4,1.42623,5.06601e-06
20,4,1.44765,4.9857e-06
21,4,1.46928,4.90381e-06
22,4,1.49111,4.82043e-06
23,4,1.51315,4.73565e-06
24,4,1.53538,4.64955e-06
25,4,1.55779,4.5622e-06
26,4,1.58039,4.47368e-06
27,4,1.60316,4.38404e-06
28,4,1.62609,4.29335e-06
29,4,1.64918,4.20166e-06
30,4,1.67242,4.10903e-06
31,4,1.69581,4.01548e-06
32,4,1.71932,3.92106e-06
33,4,1.74295,3.8258e-06
34,4,1.7667,3.72971e-06
35,4,1.79055,3.63281e-06
36,4,1.81449,3.53509e-06
37,4,1.83851,3.43656e-06
38,4,1.8626,3.33721e-06
39,4,1.88675,3.237e-06
40,4,1.91095,3.1359e-06
41,4,1.93518,3.03388e-06
42,4,1.95943,2.93087e-06
43,4,1.98368,2.8268e-06
44,4,2.00794,2.72159e-06
45,4,2.03217,2.61514e-06
46,4,2.05638,2.50734e-06
47,4,2.08053,2.39806e-06
48,4,2.10463,2.28715e-06
49,4,2.12865,2.17442e-06
50,4,2.15258,2.05969e-06
51,4,2.17641,1.94271e-06
52,4,2.20011,1.82324e-06
53,4,2.22368,1.70095e-06
54,4,2.2471,1.57552e-06
55,4,2.27035,1.44651e-06
56,4,2.29342,1.31346e-06
57,4,2.31629,1.1758e-06
58,4,2.33894,1.03284e-06
59,4,2.36136,8.83745e-07
60,4,2.38353,7.27496e-07
61,4,2.40543,5.6281e-07
62,4,2.42706,3.88079e-07
63,4,2.44838,2.01291e-07
1,5,1.09829,7.731e-06
2,5,1.11558,7.67893e-06
3,5,1.13314,7.62494e-06
4,5,1.15095,7.56879e-06
5,5,1.16903,7.51018e-06
6,5,1.18737,7.44884e-06
7,5,1.20597,7.38459e-06
8,5,1.22483,7.31731e-06
9,5,1.24395,7.24695e-06
10,5,1.26332,7.17352e-06
11,5,1.28295,7.09703e-06
12,5,1.30282,7.01756e-06
13,5,1.32295,6.93519e-06
14,5,1.34331,6.85001e-06
15,5,1.36392,6.76212e-06
16,5,1.38477,6.67164e-06
17,5,1.40585,6.57867e-06
18,5,1.42716,6.48333e-06
19,5,1.44869,6.38573e-06
20,5,1.47045,6.28599e-06
21,5,1.49242,6.18421e-06
22,5,1.5146,6.08049e-06
23,5,1.53698,5.97493e-06
24,5,1.55956,5.86764e-06
25,5,1.58232,5.7587e-06
26,5,1.60528,5.64819e-06
27,5,1.6284,5.53619e-06
28,5,1.6517,5.42277e-06
29,5,1.67515,5.30799e-06
30,5,1.69876,5.19192e-06
31,5,1.72251,5.07459e-06
32,5,1.74639,4.95605e-06
33,5,1.7704,4.83633e-06
34,5,1.79452,4.71545e-06
35,5,1.81875,4.59342e-06
36,5,1.84307,4.47024e-06
37,5,1.86747,4.34591e-06
38,5,1.89194,4.22041e-06
39,5,1.91646,4.0937e-06
40,5,1.94104,3.96574e-06
41,5,1.96565,3.83648e-06
42,5,1.99028,3.70585e-06
43,5,2.01492,3.57375e-06
44,5,2.03956,3.44009e-06
45,5,2.06418,3.30475e-06
46,5,2.08876,3.16759e-06
47,5,2.1133,3.02844e-06
48,5,2.13777,2.88713e-06
49,5,2.16217,2.74344e-06
50,5,2.18648,2.59714e-06
51,5,2.21068,2.44794e-06
52,5,2.23476,2.29554e-06
53,5,2.2587,2.13958e-06
54,5,2.28249,1.97963e-06
55,5,2.30611,1.81524e-06
56,5,2.32954,1.64584e-06
57,5,2.35276,1.47077e-06
58,5,2.37577,1.28929e-06
59,5,2.39854,1.10047e-06
60,5,2.42106,9.03236e-07
61,5,2.44331,6.96274e-07
62,5,2.46528,4.78024e-07
63,5,2.48694,2.46639e-07
1,6,1.11559,9.30309e-06
2,6,1.13315,9.24716e-06
3,6,1.15098,9.18752e-06
4,6,1.16908,9.12417e-06
5,6,1.18744,9.05706e-06
6,6,1.20607,8.9861e-06
7,6,1.22497,8.91125e-06
8,6,1.24412,8.83248e-06
9,6,1.26354,8.74981e-06
10,6,1.28322,8.66329e-06
11,6,1.30315,8.57299e-06
12,6,1.32334,8.47901e-06
13,6,1.34378,8.38146e-06
14,6,1.36447,8.28046e-06
15,6,1.3854,8.17614e-06
16,6,1.40658,8.06863e-06
17,6,1.42799,7.95807e-06
18,6,1.44964,7.84458e-06
19,6,1.47151,7.7283e-06
20,6,1.49361,7.60937e-06
21,6,1.51592,7.48789e-06
22,6,1.53845,7.36401e-06
23,6,1.56118,7.23782e-06
24,6,1.58412,7.10944e-06
25,6,1.60724,6.97897e-06
26,6,1.63056,6.84651e-06
27,6,1.65405,6.71215e-06
28,6,1.67771,6.57595e-06
29,6,1.70154,6.43801e-06
30,6,1.72551,6.29836e-06
31,6,1.74964,6.15708e-06
32,6,1.7739,6.0142e-06
33,6,1.79828,5.86975e-06
34,6,1.82278,5.72376e-06
35,6,1.84739,5.57623e-06
36,6,1.87209,5.42717e-06
37,6,1.89687,5.27657e-06
38,6,1.92173,5.12439e-06
39,6,1.94665,4.97061e-06
40,6,1.97161,4.81516e-06
41,6,1.99661,4.65797e-06
42,6,2.02163,4.49898e-06
43,6,2.04665,4.33806e-06
44,6,2.07168,4.17511e-06
45,6,2.09668,4.00998e-06
46,6,2.12165,3.84251e-06
47,6,2.14658,3.67251e-06
48,6,2.17144,3.49977e-06
49,6,2.19622,3.32406e-06
50,6,2.22091,3.14508e-06
51,6,2.2455,2.96254e-06
52,6,2.26995,2.77608e-06
53,6,2.29427,2.58528e-06
54,6,2.31843,2.38968e-06
55,6,2.34242,2.18877e-06
56,6,2.36622,1.98192e-06
57,6,2.38981,1.76843e-06
58,6,2.41318,1.54749e-06
59,6,2.43632,1.31814e-06
60,6,2.45919,1.07928e-06
61,6,2.48179,8.29625e-07
62,6,2.5041,5.67683e-07
63,6,2.5261,2.91765e-07
1,7,1.13316,1.08906e-05
2,7,1.151,1.08312e-05
3,7,1.16911,1.07665e-05
4,7,1.18749,1.06966e-05
5,7,1.20615,1.06217e-05
6,7,1.22507,1.05417e-05
7,7,1.24426,1.04569e-05
8,7,1.26372,1.03672e-05
9,7,1.28344,1.02727e-05
10,7,1.30343,1.01736e-05
11,7,1.32368,1.007e-05
12,7,1.34418,9.9619e-06
13,7,1.36494,9.84957e-06
14,7,1.38596,9.73312e-06
15,7,1.40722,9.61272e-06
16,7,1.42873,9.4885e-06
17,7,1.45048,9.36064e-06
18,7,1.47247,9.22927e-06
19,7,1.49468,9.09456e-06
20,7,1.51713,8.95665e-06
21,7,1.5398,8.81568e-06
22,7,1.56268,8.67179e-06
23,7,1.58577,8.5251e-06
24,7,1.60906,8.37573e-06
25,7,1.63256,8.22381e-06
26,7,1.65624,8.06943e-06
27,7,1.6801,7.91268e-06
28,7,1.70413,7.75367e-06
29,7,1.72833,7.59245e-06
30,7,1.75269,7.42911e-06
31,7,1.77719,7.26368e-06
32,7,1.80183,7.09623e-06
33,7,1.8266,6.92678e-06
34,7,1.85149,6.75536e-06
35,7,1.87648,6.58197e-06
36,7,1.90157,6.4066e-06
37,7,1.92675,6.22925e-06
38,7,1.95199,6.04987e-06
39,7,1.9773,5.86843e-06
40,7,2.00266,5.68485e-06
41,7,2.02805,5.49906e-06
42,7,2.05346,5.31097e-06
43,7,2.07889,5.12044e-06
44,7,2.1043,4.92736e-06
45,7,2.1297,4.73155e-06
46,7,2.15507,4.53284e-06
47,7,2.18038,4.33102e-06
48,7,2.20564,4.12585e-06
49,7,2.23081,3.91705e-06
50,7,2.25589,3.70433e-06
51,7,2.28086,3.48734e-06
52,7,2.3057,3.26568e-06
53,7,2.3304,3.03892e-06
54,7,2.35494,2.80656e-06
55,7,2.37931,2.56802e-06
56,7,2.40348,2.32266e-06
57,7,2.42745,2.06974e-06
58,7,2.45119,1.80841e-06
59,7,2.47468,1.53772e-06
60,7,2.49792,1.25656e-06
61,7,2.52087,9.63681e-07
62,7,2.54353,6.57686e-07
63,7,2.56588,3.37019e-07
1,8,1.151,1.24955e-05
2,8,1.16912,1.24329e-05
3,8,1.18752,1.23636e-05
4,8,1.20619,1.22876e-05
5,8,1.22514,1.22054e-05
6,8,1.24436,1.2117e-05
7,8,1.26385,1.20227e-05
8,8,1.28362,1.19226e-05
9,8,1.30365,1.18168e-05
10,8,1.32396,1.17056e-05
11,8,1.34452,1.1589e-05
12,8,1.36535,1.14672e-05
13,8,1.38644,1.13405e-05
14,8,1.40778,1.12089e-05
15,8,1.42938,1.10728e-05
16,8,1.45123,1.09321e-05
17,8,1.47332,1.07873e-05
18,8,1.49565,1.06383e-05
19,8,1.51822,1.04854e-05
20,8,1.54102,1.03287e-05
21,8,1.56404,1.01684e-05
22,8,1.58729,1.00047e-05
23,8,1.61074,9.83761e-06
24,8,1.6344,9.66735e-06
25,8,1.65827,9.49402e-06
26,8,1.68232,9.31773e-06
27,8,1.70656,9.1386e-06
28,8,1.73097,8.9567e-06
29,8,1.75555,8.77212e-06
30,8,1.78029,8.58493e-06
31,8,1.80518,8.39519e-06
32,8,1.83021,8.20294e-06
33,8,1.85537,8.00822e-06
34,8,1.88065,7.81103e-06
35,8,1.90603,7.6114e-06
36,8,1.93152,7.40931e-06
37,8,1.95709,7.20473e-06
38,8,1.98273,6.99762e-06
39,8,2.00844,6.78794e-06
40,8,2.0342,6.57561e-06
41,8,2.05999,6.36053e-06
42,8,2.0858,6.1426e-06
43,8,2.11162,5.92168e-06
44,8,2.13744,5.69763e-06
45,8,2.16324,5.47027e-06
46,8,2.189,5.23939e-06
47,8,2.21472,5.00477e-06
48,8,2.24037,4.76615e-06
49,8,2.26594,4.52324e-06
50,8,2.29141,4.2757e-06
51,8,2.31678,4.02316e-06
52,8,2.34201,3.76521e-06
53,8,2.3671,3.50138e-06
54,8,2.39203,3.23114e-06
55,8,2.41678,2.95389e-06
56,8,2.44133,2.66896e-06
57,8,2.46568,2.37559e-06
58,8,2.48979,2.07294e-06
59,8,2.51365,1.76005e-06
60,8,2.53725,1.43583e-06
61,8,2.56057,1.09909e-06
62,8,2.58359,7.48514e-07
63,8,2.60629,3.82661e-07
1,9,1.16913,1.41195e-05
2,9,1.18754,1.4054e-05
3,9,1.20622,1.39803e-05
4,9,1.22519,1.38987e-05
5,9,1.24444,1.38096e-05
6,9,1.26396,1.37132e-05
7,9,1.28376,1.36099e-05
8,9,1.30384,1.34998e-05
9,9,1.32418,1.33831e-05
10,9,1.34481,1.32601e-05
11,9,1.3657,1.3131e-05
12,9,1.38685,1.29959e-05
13,9,1.40827,1.28551e-05
14,9,1.42996,1.27088e-05
15,9,1.45189,1.25572e-05
16,9,1.47408,1.24005e-05
17,9,1.49652,1.22389e-05
18,9,1.51921,1.20725e-05
19,9,1.54213,1.19017e-05
20,9,1.56529,1.17264e-05
21,9,1.58868,1.1547e-05
22,9,1.61228,1.13636e-05
23,9,1.63611,1.11762e-05
24,9,1.66014,1.09851e-05
25,9,1.68438,1.07905e-05
26,9,1.70881,1.05923e-05
27,9,1.73343,1.03907e-05
28,9,1.75823,1.01859e-05
29,9,1.7832,9.97786e-06
30,9,1.80833,9.76669e-06
31,9,1.83361,9.55244e-06
32,9,1.85903,9.33516e-06
33,9,1.88459,9.11488e-06
34,9,1.91026,8.89161e-06
35,9,1.93605,8.66536e-06
36,9,1.96194,8.43611e-06
37,9,1.98791,8.20383e-06
38,9,2.01396,7.96847e-06
39,9,2.04007,7.72997e-06
40,9,2.06623,7.48825e-06
41,9,2.09243,7.24319e-06
42,9,2.11865,6.99469e-06
43,9,2.14488,6.7426e-06
44,9,2.1711,6.48675e-06
45,9,2.19731,6.22695e-06
46,9,2.22348,5.96298e-06
47,9,2.2496,5.6946e-06
48,9,2.27565,5.42153e-06
49,9,2.30162,5.14346e-06
50,9,2.3275,4.86003e-06
51,9,2.35326,4.57086e-06
52,9,2.37889,4.27552e-06
53,9,2.40438,3.9735e-06
54,9,2.4297,3.66427e-06
55,9,2.45484,3.34721e-06
56,9,2.47978,3.02165e-06
57,9,2.5045,2.68681e-06
58,9,2.529,2.34186e-06
59,9,2.55324,1.98586e-06
60,9,2.57721,1.61775e-06
61,9,2.60089,1.23639e-06
62,9,2.62427,8.40554e-07
63,9,2.64733,4.28892e-07
1,10,1.18754,1.57643e-05
2,10,1.20624,1.5696e-05
3,10,1.22522,1.56181e-05
4,10,1.24449,1.55312e-05
5,10,1.26403,1.54356e-05
6,10,1.28386,1.53316e-05
7,10,1.30398,1.52197e-05
8,10,1.32437,1.51e-05
9,10,1.34504,1.49728e-05
10,10,1.36599,1.48384e-05
11,10,1.3872,1.46971e-05
12,10,1.40869,1.45491e-05
13,10,1.43045,1.43946e-05
14,10,1.45248,1.42338e-05
15,10,1.47476,1.40671e-05
16,10,1.4973,1.38945e-05
17,10,1.52009,1.37164e-05
18,10,1.54313,1.3533e-05
19,10,1.56642,1.33443e-05
20,10,1.58994,1.31507e-05
21,10,1.6137,1.29523e-05
22,10,1.63768,1.27493e-05
23,10,1.66188,1.25418e-05
24,10,1.68629,1.233e-05
25,10,1.71091,1.2114e-05
26,10,1.73572,1.1894e-05
27,10,1.76073,1.167e-05
28,10,1.78592,1.14422e-05
29,10,1.81128,1.12106e-05
30,10,1.8368,1.09753e-05
31,10,1.86248,1.07363e-05
32,10,1.88831,1.04938e-05
33,10,1.91427,1.02477e-05
34,10,1.94035,9.99798e-06
35,10,1.96654,9.74474e-06
36,10,1.99283,9.4879e-06
37,10,2.01922,9.22744e-06
38,10,2.04567,8.9633e-06
39,10,2.0722,8.6954e-06
40,10,2.09877,8.42366e-06
41,10,2.12538,8.14795e-06
42,10,2.15201,7.86814e-06
43,10,2.17866,7.58409e-06
44,10,2.20529,7.2956e-06
45,10,2.23191,7.00248e-06
46,10,2.25849,6.7045e-06
47,10,2.28502,6.40139e-06
48,10,2.31149,6.09286e-06
49,10,2.33787,5.77859e-06
50,10,2.36415,5.45821e-06
51,10,2.39032,5.13131e-06
52,10,2.41636,4.79746e-06
53,10,2.44224,4.45614e-06
54,10,2.46796,4.1068e-06
55,10,2.4935,3.74883e-06
56,10,2.51883,3.38154e-06
57,10,2.54395,3.00417e-06
58,10,2.56882,2.6159e-06
59,10,2.59344,2.2158e-06
60,10,2.61779,1.80288e-06
61,10,2.64185,1.37605e-06
62,10,2.6656,9.34128e-07
63,10,2.68902,4.75882e-07
1,11,1.20625,1.74314e-05
2,11,1.22524,1.73603e-05
3,11,1.24452,1.72786e-05
4,11,1.26408,1.71865e-05
5,11,1.28394,1.70847e-05
6,11,1.30408,1.69735e-05
7,11,1.32451,1.68532e-05
8,11,1.34523,1.67243e-05
9,11,1.36622,1.6587e-05
10,11,1.3875,1.64416e-05
11,11,1.40905,1.62884e-05
12,11,1.43088,1.61277e-05
13,11,1.45298,1.59598e-05
14,11,1.47535,1.57849e-05
15,11,1.49798,1.56033e-05
16,11,1.52088,1.54152e-05
17,11,1.54403,1.52209e-05
18,11,1.56744,1.50206e-05
19,11,1.59109,1.48144e-05
20,11,1.61498,1.46026e-05
21,11,1.63911,1.43854e-05
22,11,1.66347,1.41629e-05
23,11,1.68805,1.39354e-05
24,11,1.71284,1.3703e-05
25,11,1.73785,1.34657e-05
26,11,1.76306,1.32238e-05
27,11,1.78846,1.29774e-05
28,11,1.81404,1.27264e-05
29,11,1.8398,1.24712e-05
30,11,1.86573,1.22116e-05
31,11,1.89181,1.19478e-05
32,11,1.91805,1.16797e-05
33,11,1.94441,1.14075e-05
34,11,1.9709,1.11311e-05
35,11,1.99751,1.08505e-05
36,11,2.02422,1.05656e-05
37,11,2.05101,1.02765e-05
38,11,2.07789,9.98306e-06
39,11,2.10483,9.68518e-06
40,11,2.13182,9.38278e-06
41,11,2.15885,9.07573e-06
42,11,2.1859,8.76388e-06
43,11,2.21297,8.44708e-06
44,11,2.24002,8.12512e-06
45,11,2.26706,7.7978e-06
46,11,2.29406,7.46487e-06
47,11,2.32101,7.12605e-06
48,11,2.34789,6.78105e-06
49,11,2.37469,6.42953e-06
50,11,2.40138,6.07112e-06
51,11,2.42796,5.7054e-06
52,11,2.45441,5.33191e-06
53,11,2.4807,4.95015e-06
54,11,2.50683,4.55957e-06
55,11,2.53276,4.15954e-06
56,11,2.5585,3.7494e-06
57,11,2.58401,3.32839e-06
58,11,2.60928,2.89571e-06
59,11,2.63429,2.45049e-06
60,11,2.65902,1.99174e-06
61,11,2.68345,1.51845e-06
62,11,2.70758,1.02952e-06
63,11,2.73137,5.23774e-07
1,12,1.22524,1.91222e-05
2,12,1.24453,1.90486e-05
3,12,1.26412,1.8963e-05
4,12,1.28399,1.8866e-05
5,12,1.30416,1.87582e-05
6,12,1.32462,1.864e-05
7,12,1.34537,1.85118e-05
8,12,1.36641,1.83739e-05
9,12,1.38774,1.82267e-05
10,12,1.40935,1.80706e-05
11,12,1.43124,1.79059e-05
12,12,1.45341,1.77329e-05
13,12,1.47586,1.75519e-05
14,12,1.49858,1.73632e-05
15,12,1.52158,1.7167e-05
16,12,1.54483,1.69636e-05
17,12,1.56835,1.67533e-05
18,12,1.59212,1.65363e-05
19,12,1.61614,1.63128e-05
20,12,1.64041,1.6083e-05
21,12,1.66492,1.58471e-05
22,12,1.68966,1.56054e-05
23,12,1.71463,1.53579e-05
24,12,1.73982,1.51049e-05
25,12,1.76522,1.48464e-05
26,12,1.79082,1.45827e-05
27,12,1.81662,1.43137e-05
28,12,1.84261,1.40397e-05
29,12,1.86878,1.37607e-05
30,12,1.89511,1.34767e-05
31,12,1.92161,1.31878e-05
32,12,1.94825,1.2894e-05
33,12,1.97503,1.25954e-05
34,12,2.00194,1.22919e-05
35,12,2.02897,1.19836e-05
36,12,2.05609,1.16703e-05
37,12,2.08331,1.1352e-05
38,12,2.11061,1.10287e-05
39,12,2.13798,1.07003e-05
40,12,2.16539,1.03666e-05
41,12,2.19285,1.00275e-05
42,12,2.22033,9.6829e-06
43,12,2.24782,9.33256e-06
44,12,2.2753,8.97629e-06
45,12,2.30276,8.61387e-06
46,12,2.33019,8.24506e-06
47,12,2.35756,7.86956e-06
48,12,2.38486,7.48707e-06
49,12,2.41208,7.09724e-06
50,12,2.4392,6.6997e-06
51,12,2.4662,6.29403e-06
52,12,2.49306,5.87976e-06
53,12,2.51977,5.45641e-06
54,12,2.5463,5.0234e-06
55,12,2.57265,4.58014e-06
56,12,2.59879,4.12597e-06
57,12,2.6247,3.66017e-06
58,12,2.65037,3.18195e-06
59,12,2.67577,2.69047e-06
60,12,2.70089,2.1848e-06
61,12,2.72571,1.66399e-06
62,12,2.75021,1.12698e-06
63,12,2.77438,5.727e-07
1,13,1.24454,2.08382e-05
2,13,1.26413,2.07619e-05
3,13,1.28402,2.06727e-05
4,13,1.30421,2.0571e-05
5,13,1.3247,2.04575e-05
6,13,1.34548,2.03325e-05
7,13,1.36656,2.01965e-05
8,13,1.38793,2.005e-05
9,13,1.40959,1.98932e-05
10,13,1.43154,1.97267e-05
11,13,1.45378,1.95508e-05
12,13,1.4763,1.93658e-05
13,13,1.49911,1.91719e-05
14,13,1.52219,1.89696e-05
15,13,1.54554,1.87591e-05
16,13,1.56916,1.85407e-05
17,13,1.59305,1.83146e-05
18,13,1.61719,1.80812e-05
19,13,1.6416,1.78405e-05
20,13,1.66625,1.75929e-05
21,13,1.69114,1.73386e-05
22,13,1.71627,1.70777e-05
23,13,1.74163,1.68104e-05
24,13,1.76722,1.65369e-05
25,13,1.79302,1.62572e-05
26,13,1.81903,1.59716e-05
27,13,1.84523,1.56802e-05
28,13,1.87163,1.5383e-05
29,13,1.89821,1.50801e-05
30,13,1.92496,1.47715e-05
31,13,1.95187,1.44574e-05
32,13,1.97893,1.41377e-05
33,13,2.00614,1.38124e-05
34,13,2.03347,1.34815e-05
35,13,2.06092,1.3145e-05
36,13,2.08847,1.28029e-05
37,13,2.11612,1.24551e-05
38,13,2.14385,1.21014e-05
39,13,2.17165,1.17418e-05
40,13,2.19949,1.13762e-05
41,13,2.22738,1.10044e-05
42,13,2.25529,1.06263e-05
43,13,2.28321,1.02416e-05
44,13,2.31113,9.85015e-06
45,13,2.33902,9.45174e-06
46,13,2.36688,9.04609e-06
47,13,2.39469,8.63291e-06
48,13,2.42242,8.21189e-06
49,13,2.45007,7.78268e-06
50,13,2.47761,7.3449e-06
51,13,2.50504,6.89813e-06
52,13,2.53232,6.44192e-06
53,13,2.55945,5.97577e-06
54,13,2.5864,5.49914e-06
55,13,2.61316,5.01143e-06
56,13,2.63971,4.51202e-06
57,13,2.66603,4.0002e-06
58,13,2.6921,3.47522e-06
59,13,2.71791,2.93628e-06
60,13,2.74342,2.38251e-06
61,13,2.76864,1.81299e-06
62,13,2.79352,1.22675e-06
63,13,2.81807,6.22778e-07
1,14,1.26414,2.25806e-05
2,14,1.28404,2.25018e-05
3,14,1.30425,2.2409e-05
4,14,1.32475,2.23028e-05
5,14,1.34556,2.21836e-05
6,14,1.36667,2.20521e-05
7,14,1.38808,2.19086e-05
8,14,1.40979,2.17537e-05
9,14,1.43179,2.15877e-05
10,14,1.45409,2.1411e-05
11,14,1.47668,2.12241e-05
12,14,1.49955,2.10273e-05
13,14,1.52271,2.08209e-05
14,14,1.54616,2.06053e-05
15,14,1.56988,2.03808e-05
16,14,1.59387,2.01475e-05
17,14,1.61814,1.9906e-05
18,14,1.64266,1.96563e-05
19,14,1.66745,1.93987e-05
20,14,1.69249,1.91335e-05
21,14,1.71777,1.88608e-05
22,14,1.7433,1.85809e-05
23,14,1.76906,1.82939e-05
24,14,1.79505,1.79999e-05
25,14,1.82126,1.76992e-05
26,14,1.84767,1.73918e-05
27,14,1.87429,1.70778e-05
28,14,1.9011,1.67573e-05
29,14,1.9281,1.64305e-05
30,14,1.95527,1.60972e-05
31,14,1.98261,1.57577e-05
32,14,2.0101,1.54118e-05
33,14,2.03773,1.50596e-05
34,14,2.06549,1.4701e-05
35,14,2.09337,1.43361e-05
36,14,2.12136,1.39647e-05
37,14,2.14945,1.35867e-05
38,14,2.17761,1.32022e-05
39,14,2.20585,1.28109e-05
40,14,2.23413,1.24127e-05
41,14,2.26246,1.20075e-05
42,14,2.29081,1.15951e-05
43,14,2.31917,1.11752e-05
44,14,2.34753,1.07478e-05
45,14,2.37586,1.03125e-05
46,14,2.40416,9.86903e-06
47,14,2.4324,9.41716e-06
48,14,2.46057,8.95656e-06
49,14,2.48865,8.48686e-06
50,14,2.51663,8.0077e-06
51,14,2.54449,7.51866e-06
52,14,2.5722,7.0193e-06
53,14,2.59975,6.50913e-06
54,14,2.62713,5.98762e-06
55,14,2.65432,5.4542e-06
56,14,2.68128,4.90826e-06
57,14,2.70802,4.34914e-06
58,14,2.7345,3.77612e-06
59,14,2.76071,3.18844e-06
60,14,2.78663,2.58528e-06
61,14,2.81224,1.96579e-06
62,14,2.83752,1.32906e-06
63,14,2.86245,6.74123e-07
1,15,1.28405,2.43507e-05
2,15,1.30426,2.42695e-05
3,15,1.32479,2.41733e-05
4,15,1.34562,2.40626e-05
5,15,1.36675,2.3938e-05
6,15,1.3882,2.38e-05
7,15,1.40994,2.36493e-05
8,15,1.43199,2.34862e-05
9,15,1.45434,2.33111e-05
10,15,1.47699,2.31246e-05
11,15,1.49993,2.2927e-05
12,15,1.52317,2.27187e-05
13,15,1.5467,2.25e-05
14,15,1.57051,2.22713e-05
15,15,1.5946,2.2033e-05
16,15,1.61897,2.17852e-05
17,15,1.64362,2.15284e-05
18,15,1.66853,2.12627e-05
19,15,1.69371,2.09883e-05
20,15,1.71914,2.07057e-05
21,15,1.74483,2.04148e-05
22,15,1.77076,2.0116e-05
23,15,1.79692,1.98094e-05
24,15,1.82332,1.94951e-05
25,15,1.84994,1.91734e-05
26,15,1.87677,1.88442e-05
27,15,1.90381,1.85077e-05
28,15,1.93104,1.81639e-05
29,15,1.95847,1.7813e-05
30,15,1.98606,1.7455e-05
31,15,2.01383,1.70898e-05
32,15,2.04175,1.67175e-05
33,15,2.06982,1.63381e-05
34,15,2.09802,1.59516e-05
35,15,2.12634,1.55578e-05
36,15,2.15477,1.51567e-05
37,15,2.1833,1.47482e-05
38,15,2.21191,1.43322e-05
39,15,2.24058,1.39086e-05
40,15,2.26932,1.34772e-05
41,15,2.29809,1.30379e-05
42,15,2.32689,1.25905e-05
43,15,2.35569,1.21347e-05
44,15,2.38449,1.16704e-05
45,15,2.41327,1.11972e-05
46,15,2.44202,1.0715e-05
47,15,2.4707,1.02234e-05
48,15,2.49932,9.72215e-06
49,15,2.52784,9.21085e-06
50,15,2.55626,8.68914e-06
51,15,2.58456,8.15663e-06
52,15,2.61271,7.61287e-06
53,15,2.6407,7.05739e-06
54,15,2.6685,6.4897e-06
55,15,2.69611,5.90925e-06
56,15,2.72351,5.31545e-06
57,15,2.75066,4.70767e-06
58,15,2.77756,4.08525e-06
59,15,2.80418,3.44747e-06
60,15,2.83051,2.79356e-06
61,15,2.85652,2.12272e-06
62,15,2.8822,1.43411e-06
63,15,2.90752,7.26845e-07
1,16,1.30427,2.61497e-05
2,16,1.3248,2.60662e-05
3,16,1.34565,2.59665e-05
4,16,1.36681,2.58515e-05
5,16,1.38828,2.57216e-05
6,16,1.41006,2.55775e-05
7,16,1.43215,2.54197e-05
8,16,1.45454,2.52486e-05
9,16,1.47725,2.50647e-05
10,16,1.50025,2.48686e-05
11,16,1.52355,2.46605e-05
12,16,1.54716,2.44409e-05
13,16,1.57105,2.42102e-05
14,16,1.59524,2.39688e-05
15,16,1.61971,2.37169e-05
16,16,1.64447,2.34548e-05
17,16,1.6695,2.31829e-05
18,16,1.69481,2.29014e-05
19,16,1.72038,2.26106e-05
20,16,1.74622,2.23106e-05
21,16,1.77231,2.20018e-05
22,16,1.79864,2.16843e-05
23,16,1.82522,2.13582e-05
24,16,1.85203,2.10237e-05
25,16,1.87907,2.06809e-05
26,16,1.90633,2.033e-05
27,16,1.93379,1.99709e-05
28,16,1.96145,1.96039e-05
29,16,1.98931,1.92289e-05
30,16,2.01734,1.88459e-05
31,16,2.04555,1.8455e-05
32,16,2.07391,1.80561e-05
33,16,2.10242,1.76493e-05
34,16,2.13106,1.72344e-05
35,16,2.15983,1.68114e-05
36,16,2.18871,1.63802e-05
37,16,2.21768,1.59407e-05
38,16,2.24674,1.54928e-05
39,16,2.27587,1.50363e-05
40,16,2.30505,1.4571e-05
41,16,2.33428,1.40969e-05
42,16,2.36353,1.36137e-05
43,16,2.39279,1.31212e-05
44,16,2.42205,1.26191e-05
45,16,2.45128,1.21072e-05
46,16,2.48047,1.15852e-05
47,16,2.50961,1.10528e-05
48,16,2.53868,1.05098e-05
49,16,2.56765,9.95574e-06
50,16,2.59652,9.39028e-06
51,16,2.62526,8.81304e-06
52,16,2.65385,8.2236e-06
53,16,2.68228,7.62151e-06
54,16,2.71053,7.00628e-06
55,16,2.73857,6.37741e-06
56,16,2.7664,5.73434e-06
57,16,2.79398,5.07648e-06
58,16,2.8213,4.40321e-06
59,16,2.84834,3.71387e-06
60,16,2.87508,3.00774e-06
61,16,2.90151,2.28409e-06
62,16,2.92759,1.54213e-06
63,16,2.95331,7.81053e-07
1,17,1.32481,2.79789e-05
2,17,1.34567,2.7893e-05
3,17,1.36684,2.77901e-05
4,17,1.38833,2.76708e-05
5,17,1.41014,2.75358e-05
6,17,1.43226,2.73857e-05
7,17,1.4547,2.72209e-05
8,17,1.47745,2.70421e-05
9,17,1.50051,2.68496e-05
10,17,1.52388,2.66441e-05
11,17,1.54755,2.64258e-05
12,17,1.57152,2.61952e-05
13,17,1.5958,2.59528e-05
14,17,1.62036,2.56987e-05
15,17,1.64522,2.54335e-05
16,17,1.67037,2.51574e-05
17,17,1.6958,2.48707e-05
18,17,1.7215,2.45736e-05
19,17,1.74748,2.42665e-05
20,17,1.77372,2.39495e-05
21,17,1.80022,2.36229e-05
22,17,1.82697,2.32867e-05
23,17,1.85397,2.29413e-05
24,17,1.8812,2.25867e-05
25,17,1.90866,2.2223e-05
26,17,1.93635,2.18504e-05
27,17,1.96424,2.14688e-05
28,17,1.99234,2.10784e-05
29,17,2.02064,2.06792e-05
30,17,2.04911,2.02712e-05
31,17,2.07776,1.98544e-05
32,17,2.10657,1.94288e-05
33,17,2.13553,1.89942e-05
34,17,2.16462,1.85507e-05
35,17,2.19384,1.80982e-05
36,17,2.22317,1.76365e-05
37,17,2.2526,1.71655e-05
38,17,2.28212,1.66851e-05
39,17,2.31171,1.61952e-05
40,17,2.34135,1.56955e-05
41,17,2.37104,1.51858e-05
42,17,2.40075,1.46661e-05
43,17,2.43047,1.41359e-05
44,17,2.46019,1.35952e-05
45,17,2.48988,1.30436e-05
46,17,2.51953,1.24808e-05
47,17,2.54913,1.19066e-05
48,17,2.57866,1.13207e-05
49,17,2.60809,1.07227e-05
50,17,2.63741,1.01122e-05
51,17,2.6666,9.48899e-06
52,17,2.69564,8.85253e-06
53,17,2.72452,8.20244e-06
54,17,2.75321,7.53826e-06
55,17,2.7817,6.85952e-06
56,17,2.80996,6.1657e-06
57,17,2.83798,5.45626e-06
58,17,2.86573,4.73062e-06
59,17,2.8932,3.98817e-06
60,17,2.92036,3.22827e-06
61,17,2.9472,2.45023e-06
62,17,2.97369,1.65334e-06
63,17,2.99982,8.36857e-07
1,18,1.34568,2.98395e-05
2,18,1.36686,2.97512e-05
3,18,1.38837,2.96451e-05
4,18,1.4102,2.95217e-05
5,18,1.43235,2.93817e-05
6,18,1.45482,2.92257e-05
7,18,1.47761,2.90542e-05
8,18,1.50072,2.88678e-05
9,18,1.52414,2.8667e-05
10,18,1.54788,2.84522e-05
11,18,1.57192,2.8224e-05
12,18,1.59627,2.79826e-05
13,18,1.62093,2.77286e-05
14,18,1.64588,2.74623e-05
15,18,1.67113,2.7184e-05
16,18,1.69667,2.68941e-05
17,18,1.7225,2.65928e-05
18,18,1.74861,2.62805e-05
19,18,1.775,2.59572e-05
20,18,1.80165,2.56234e-05
21,18,1.82857,2.52791e-05
22,18,1.85574,2.49246e-05
23,18,1.88316,2.456e-05
24,18,1.91083,2.41854e-05
25,18,1.93872,2.38009e-05
26,18,1.96684,2.34066e-05
27,18,1.99518,2.30026e-05
28,18,2.02372,2.25888e-05
29,18,2.05246,2.21654e-05
30,18,2.08138,2.17323e-05
31,18,2.11048,2.12895e-05
32,18,2.13974,2.08368e-05
33,18,2.16916,2.03744e-05
34,18,2.19871,1.9902e-05
35,18,2.22839,1.94195e-05
36,18,2.25818,1.89269e-05
37,18,2.28808,1.8424e-05
38,18,2.31806,1.79107e-05
39,18,2.34811,1.73867e-05
40,18,2.37822,1.68519e-05
41,18,2.40838,1.6306e-05
42,18,2.43856,1.57489e-05
43,18,2.46875,1.51804e-05
44,18,2.49893,1.46001e-05
45,18,2.52909,1.40078e-05
46,18,2.55921,1.34032e-05
47,18,2.58928,1.27861e-05
48,18,2.61926,1.21561e-05
49,18,2.64916,1.15129e-05
50,18,2.67894,1.08562e-05
51,18,2.70859,1.01856e-05
52,18,2.73809,9.50073e-06
53,18,2.76743,8.8012e-06
54,18,2.79657,8.0866e-06
55,18,2.82551,7.35646e-06
56,18,2.85421,6.61034e-06
57,18,2.88267,5.84772e-06
58,18,2.91086,5.0681e-06
59,18,2.93876,4.2709e-06
60,18,2.96635,3.45556e-06
61,18,2.99361,2.62146e-06
62,18,3.02052,1.76795e-06
63,18,3.04706,8.94368e-07
1,19,1.36687,3.17325e-05
2,19,1.38839,3.1642e-05
3,19,1.41023,3.15326e-05
4,19,1.43241,3.14052e-05
5,19,1.45491,3.12603e-05
6,19,1.47773,3.10986e-05
7,19,1.50088,3.09205e-05
8,19,1.52435,3.07268e-05
9,19,1.54814,3.05178e-05
10,19,1.57225,3.02941e-05
11,19,1.59668,3.00561e-05
12,19,1.62141,2.98043e-05
13,19,1.64645,2.9539e-05
14,19,1.6718,2.92607e-05
15,19,1.69745,2.89696e-05
16,19,1.72339,2.86661e-05
17,19,1.74963,2.83505e-05
18,19,1.77615,2.80231e-05
19,19,1.80295,2.7684e-05
20,19,1.83002,2.73335e-05
21,19,1.85736,2.69718e-05
22,19,1.88496,2.65991e-05
23,19,1.91282,2.62154e-05
24,19,1.94092,2.5821e-05
25,19,1.96925,2.54158e-05
26,19,1.99782,2.49999e-05
27,19,2.0266,2.45735e-05
28,19,2.05559,2.41364e-05
29,19,2.08478,2.36887e-05
30,19,2.11416,2.32304e-05
31,19,2.14372,2.27614e-05
32,19,2.17344,2.22817e-05
33,19,2.20332,2.17911e-05
34,19,2.23334,2.12895e-05
35,19,2.26348,2.07769e-05
36,19,2.29375,2.0253e-05
37,19,2.32411,1.97177e-05
38,19,2.35457,1.91709e-05
39,19,2.38509,1.86122e-05
40,19,2.41568,1.80417e-05
41,19,2.44631,1.74589e-05
42,19,2.47696,1.68637e-05
43,19,2.50762,1.62559e-05
44,19,2.53828,1.56351e-05
45,19,2.56892,1.50011e-05
46,19,2.59952,1.43537e-05
47,19,2.63005,1.36925e-05
48,19,2.66051,1.30173e-05
49,19,2.69088,1.23276e-05
50,19,2.72113,1.16233e-05
51,19,2.75125,1.0904e-05
52,19,2.78121,1.01693e-05
53,19,2.81101,9.41885e-06
54,19,2.84061,8.65226e-06
55,19,2.87,7.86915e-06
56,19,2.89916,7.06908e-06
57,19,2.92807,6.25162e-06
58,19,2.9567,5.41629e-06
59,19,2.98504,4.56262e-06
60,19,3.01306,3.69008e-06
61,19,3.04075,2.79813e-06
62,19,3.06809,1.8862e-06
63,19,3.09504,9.53701e-07
1,20,1.3884,3.36591e-05
2,20,1.41025,3.35663e-05
3,20,1.43244,3.34539e-05
4,20,1.45497,3.33225e-05
5,20,1.47782,3.31728e-05
6,20,1.501,3.30055e-05
7,20,1.52452,3.28211e-05
8,20,1.54836,3.26202e-05
9,20,1.57252,3.24032e-05
10,20,1.59701,3.21708e-05
11,20,1.62182,3.19233e-05
12,20,1.64695,3.16612e-05
13,20,1.67238,3.1385e-05
14,20,1.69813,3.10949e-05
15,20,1.72418,3.07913e-05
16,20,1.75053,3.04745e-05
17,20,1.77718,3.01448e-05
18,20,1.80412,2.98026e-05
19,20,1.83134,2.94479e-05
20,20,1.85884,2.9081e-05
21,20,1.88661,2.87022e-05
22,20,1.91465,2.83114e-05
23,20,1.94294,2.79089e-05
24,20,1.97148,2.74947e-05
25,20,2.00027,2.7069e-05
26,20,2.02928,2.66317e-05
27,20,2.05851,2.61828e-05
28,20,2.08796,2.57225e-05
29,20,2.11761,2.52505e-05
30,20,2.14745,2.4767e-05
31,20,2.17748,2.42717e-05
32,20,2.20767,2.37647e-05
33,20,2.23801,2.32458e-05
34,20,2.26851,2.27148e-05
35,20,2.29913,2.21716e-05
36,20,2.32987,2.16161e-05
37,20,2.36071,2.1048e-05
38,20,2.39165,2.04672e-05
39,20,2.42265,1.98734e-05
40,20,2.45372,1.92664e-05
41,20,2.48483,1.8646e-05
42,20,2.51597,1.80119e-05
43,20,2.54712,1.73639e-05
44,20,2.57826,1.67018e-05
45,20,2.60938,1.60251e-05
46,20,2.64045,1.53337e-05
47,20,2.67147,1.46273e-05
48,20,2.70241,1.39056e-05
49,20,2.73325,1.31683e-05
50,20,2.76398,1.2415e-05
51,20,2.79457,1.16455e-05
52,20,2.82501,1.08594e-05
53,20,2.85528,1.00565e-05
54,20,2.88534,9.2363e-06
55,20,2.9152,8.39853e-06
56,20,2.94482,7.54279e-06
57,20,2.97418,6.66871e-06
58,20,3.00326,5.77589e-06
59,20,3.03205,4.86389e-06
60,20,3.06051,3.93228e-06
61,20,3.08864,2.98058e-06
62,20,3.1164,2.00832e-06
63,20,3.14378,1.01498e-06
1,21,1.41026,3.56203e-05
2,21,1.43246,3.55253e-05
3,21,1.455,3.54098e-05
4,21,1.47788,3.52746e-05
5,21,1.50109,3.51203e-05
6,21,1.52464,3.49476e-05
7,21,1.54853,3.47569e-05
8,21,1.57274,3.4549e-05
9,21,1.59729,3.43244e-05
10,21,1.62216,3.40834e-05
11,21,1.64736,3.38267e-05
12,21,1.67288,3.35547e-05
13,21,1.69872,3.32676e-05
14,21,1.72487,3.2966e-05
15,21,1.75134,3.26502e-05
16,21,1.7781,3.23204e-05
17,21,1.80517,3.1977e-05
18,21,1.83253,3.16202e-05
19,21,1.86018,3.12502e-05
20,21,1.88812,3.08672e-05
21,21,1.91633,3.04713e-05
22,21,1.9448,3.00628e-05
23,21,1.97354,2.96416e-05
24,21,2.00253,2.9208e-05
25,21,2.03177,2.87618e-05
26,21,2.06124,2.83032e-05
27,21,2.09093,2.7832e-05
28,21,2.12084,2.73484e-05
29,21,2.15096,2.68522e-05
30,21,2.18127,2.63434e-05
31,21,2.21177,2.58219e-05
32,21,2.24243,2.52874e-05
33,21,2.27326,2.474e-05
34,21,2.30423,2.41793e-05
35,21,2.33534,2.36053e-05
36,21,2.36656,2.30178e-05
37,21,2.39789,2.24165e-05
38,21,2.42931,2.18012e-05
39,21,2.46081,2.11716e-05
40,21,2.49236,2.05276e-05
41,21,2.52396,1.98689e-05
42,21,2.55559,1.91952e-05
43,21,2.58723,1.85062e-05
44,21,2.61886,1.78016e-05
45,21,2.65047,1.70813e-05
46,21,2.68203,1.63448e-05
47,21,2.71354,1.5592e-05
48,21,2.74497,1.48226e-05
49,21,2.7763,1.40361e-05
50,21,2.80751,1.32325e-05
51,21,2.83858,1.24113e-05
52,21,2.8695,1.15724e-05
53,21,2.90024,1.07153e-05
54,21,2.93078,9.8398e-06
55,21,2.96111,8.94561e-06
56,21,2.99119,8.03239e-06
57,21,3.02101,7.09983e-06
58,21,3.05056,6.14759e-06
59,21,3.07979,5.17532e-06
60,21,3.10871,4.18265e-06
61,21,3.13728,3.1692e-06
62,21,3.16548,2.13456e-06
63,21,3.19329,1.07832e-06
1,22,1.43247,3.76173e-05
2,22,1.45502,3.75201e-05
3,22,1.47792,3.74016e-05
4,22,1.50115,3.72627e-05
5,22,1.52473,3.71038e-05
6,22,1.54865,3.69258e-05
7,22,1.57291,3.67291e-05
8,22,1.59751,3.65145e-05
9,22,1.62245,3.62823e-05
10,22,1.64771,3.60331e-05
11,22,1.67331,3.57674e-05
12,22,1.69923,3.54856e-05
13,22,1.72547,3.51881e-05
14,22,1.75204,3.48753e-05
15,22,1.77892,3.45475e-05
16,22,1.80611,3.42051e-05
17,22,1.8336,3.38482e-05
18,22,1.86139,3.34771e-05
19,22,1.88948,3.3092e-05
20,22,1.91785,3.26932e-05
21,22,1.9465,3.22806e-05
22,22,1.97543,3.18546e-05
23,22,2.00462,3.1415e-05
24,22,2.03407,3.0962e-05
25,22,2.06376,3.04956e-05
26,22,2.0937,3.00158e-05
27,22,2.12386,2.95225e-05
28,22,2.15424,2.90157e-05
29,22,2.18484,2.84954e-05
30,22,2.21562,2.79613e-05
31,22,2.2466,2.74133e-05
32,22,2.27775,2.68514e-05
33,22,2.30906,2.62753e-05
34,22,2.34052,2.56848e-05
35,22,2.37211,2.50797e-05
36,22,2.40383,2.44598e-05
37,22,2.43565,2.38248e-05
38,22,2.46757,2.31746e-05
39,22,2.49956,2.25087e-05
40,22,2.53161,2.18271e-05
41,22,2.56371,2.11293e-05
42,22,2.59583,2.04151e-05
43,22,2.62797,1.96842e-05
44,22,2.6601,1.89363e-05
45,22,2.69221,1.81713e-05
46,22,2.72427,1.73886e-05
47,22,2.75627,1.65882e-05
48,22,2.78819,1.57697e-05
49,22,2.82002,1.49328e-05
50,22,2.85172,1.40773e-05
51,22,2.88328,1.32029e-05
52,22,2.91469,1.23094e-05
53,22,2.94591,1.13965e-05
54,22,2.97694,1.04639e-05
55,22,3.00774,9.51145e-06
56,22,3.03829,8.53884e-06
57,22,3.06859,7.54583e-06
58,22,3.09859,6.53215e-06
59,22,3.12829,5.49754e-06
60,22,3.15766,4.4417e-06
61,22,3.18668,3.36436e-06
62,22,3.21533,2.26519e-06
63,22,3.24358,1.14385e-06
1,23,1.45503,3.9651e-05
2,23,1.47794,3.95517e-05
3,23,1.50119,3.94303e-05
4,23,1.5248,3.92876e-05
5,23,1.54875,3.91244e-05
6,23,1.57304,3.89412e-05
7,23,1.59769,3.87387e-05
8,23,1.62267,3.85175e-05
9,23,1.648,3.8278e-05
10,23,1.67366,3.80208e-05
11,23,1.69966,3.77464e-05
12,23,1.72599,3.74552e-05
13,23,1.75265,3.71475e-05
14,23,1.77963,3.68238e-05
15,23,1.80693,3.64844e-05
16,23,1.83455,3.61295e-05
17,23,1.86248,3.57595e-05
18,23,1.89071,3.53745e-05
19,23,1.91923,3.49747e-05
20,23,1.94805,3.45603e-05
21,23,1.97716,3.41313e-05
22,23,2.00654,3.3688e-05
23,23,2.03619,3.32303e-05
24,23,2.0661,3.27582e-05
25,23,2.09626,3.22718e-05
26,23,2.12667,3.1771e-05
27,23,2.15731,3.12557e-05
28,23,2.18817,3.07259e-05
29,23,2.21924,3.01814e-05
30,23,2.25052,2.9622e-05
31,23,2.28198,2.90477e-05
32,23,2.31362,2.84582e-05
33,23,2.34542,2.78533e-05
34,23,2.37738,2.72327e-05
35,23,2.40947,2.65963e-05
36,23,2.44168,2.59437e-05
37,23,2.47401,2.52747e-05
38,23,2.50643,2.45891e-05
39,23,2.53892,2.38864e-05
40,23,2.57148,2.31664e-05
41,23,2.60408,2.24289e-05
42,23,2.63671,2.16734e-05
43,23,2.66936,2.08998e-05
44,23,2.70199,2.01077e-05
45,23,2.7346,1.92968e-05
46,23,2.76717,1.84668e-05
47,23,2.79968,1.76175e-05
48,23,2.8321,1.67486e-05
49,23,2.86443,1.58598e-05
50,23,2.89663,1.49509e-05
51,23,2.92869,1.40217e-05
52,23,2.96059,1.30719e-05
53,23,2.9923,1.21013e-05
54,23,3.02382,1.11098e-05
55,23,3.0551,1.00972e-05
56,23,3.08614,9.06315e-06
57,23,3.11691,8.00761e-06
58,23,3.14739,6.93036e-06
59,23,3.17756,5.83122e-06
60,23,3.20739,4.70999e-06
61,23,3.23687,3.56648e-06
62,23,3.26596,2.40047e-06
63,23,3.29466,1.21172e-06
1,24,1.47794,4.17225e-05
2,24,1.50121,4.1621e-05
3,24,1.52483,4.14968e-05
4,24,1.54881,4.13506e-05
5,24,1.57314,4.11831e-05
6,24,1.59782,4.09949e-05
7,24,1.62285,4.07868e-05
8,24,1.64823,4.05592e-05
9,24,1.67395,4.03126e-05
10,24,1.70002,4.00477e-05
11,24,1.72643,3.97648e-05
12,24,1.75317,3.94645e-05
13,24,1.78025,3.9147e-05
14,24,1.80766,3.88127e-05
15,24,1.83539,3.8462e-05
16,24,1.86344,3.80951e-05
17,24,1.89181,3.77122e-05
18,24,1.92048,3.73136e-05
19,24,1.94946,3.68994e-05
20,24,1.97873,3.64698e-05
21,24,2.0083,3.60248e-05
22,24,2.03814,3.55645e-05
23,24,2.06826,3.50889e-05
24,24,2.09864,3.4598e-05
25,24,2.12928,3.40918e-05
26,24,2.16016,3.35702e-05
27,24,2.19128,3.30331e-05
28,24,2.22263,3.24804e-05
29,24,2.25419,3.19119e-05
30,24,2.28596,3.13273e-05
31,24,2.31792,3.07266e-05
32,24,2.35005,3.01095e-05
33,24,2.38236,2.94757e-05
34,24,2.41482,2.88249e-05
35,24,2.44741,2.81569e-05
36,24,2.48014,2.74714e-05
37,24,2.51297,2.6768e-05
38,24,2.5459,2.60465e-05
39,24,2.5789,2.53064e-05
40,24,2.61198,2.45476e-05
41,24,2.64509,2.37696e-05
42,24,2.67824,2.29721e-05
43,24,2.71139,2.21548e-05
44,24,2.74454,2.13174e-05
45,24,2.77767,2.04596e-05
46,24,2.81075,1.95811e-05
47,24,2.84377,1.86816e-05
48,24,2.8767,1.77609e-05
49,24,2.90954,1.68188e-05
50,24,2.94225,1.58549e-05
51,24,2.97481,1.48692e-05
52,24,3.00721,1.38613e-05
53,24,3.03943,1.28313e-05
54,24,3.07143,1.17789e-05
55,24,3.10321,1.0704e-05
56,24,3.13474,9.60641e-06
57,24,3.166,8.48615e-06
58,24,3.19696,7.34306e-06
59,24,3.2276,6.17707e-06
60,24,3.2579,4.98808e-06
61,24,3.28784,3.77599e-06
62,24,3.31739,2.5407e-06
63,24,3.34654,1.28208e-06
1,25,1.50122,4.38327e-05
2,25,1.52485,4.37291e-05
3,25,1.54885,4.36021e-05
4,25,1.5732,4.34524e-05
5,25,1.59791,4.32808e-05
6,25,1.62298,4.30878e-05
7,25,1.6484,4.28742e-05
8,25,1.67418,4.26405e-05
9,25,1.70031,4.23871e-05
10,25,1.72679,4.21148e-05
11,25,1.75361,4.18238e-05
12,25,1.78078,4.15146e-05
13,25,1.80828,4.11875e-05
14,25,1.83612,4.08431e-05
15,25,1.86429,4.04814e-05
16,25,1.89279,4.01028e-05
17,25,1.9216,3.97075e-05
18,25,1.95073,3.92957e-05
19,25,1.98016,3.88674e-05
20,25,2.0099,3.84229e-05
21,25,2.03992,3.79622e-05
22,25,2.07024,3.74853e-05
23,25,2.10083,3.69922e-05
24,25,2.13169,3.64828e-05
25,25,2.16281,3.59571e-05
26,25,2.19418,3.5415e-05
27,25,2.22579,3.48563e-05
28,25,2.25763,3.42809e-05
29,25,2.28969,3.36884e-05
30,25,2.32196,3.30789e-05
31,25,2.35442,3.24518e-05
32,25,2.38706,3.18071e-05
33,25,2.41988,3.11443e-05
34,25,2.45285,3.04632e-05
35,25,2.48596,2.97634e-05
36,25,2.51919,2.90447e-05
37,25,2.55254,2.83066e-05
38,25,2.58599,2.75487e-05
39,25,2.61952,2.67708e-05
40,25,2.65311,2.59724e-05
41,25,2.68675,2.51533e-05
42,25,2.72041,2.4313e-05
43,25,2.75409,2.34511e-05
44,25,2.78776,2.25675e-05
45,25,2.82141,2.16617e-05
46,25,2.85501,2.07335e-05
47,25,2.88855,1.97825e-05
48,25,2.92201,1.88086e-05
49,25,2.95535,1.78115e-05
50,25,2.98858,1.6791e-05
51,25,3.02166,1.5747e-05
52,25,3.05457,1.46793e-05
53,25,3.08729,1.35878e-05
54,25,3.1198,1.24724e-05
55,25,3.15208,1.13331e-05
56,25,3.18411,1.01698e-05
57,25,3.21585,8.98247e-06
58,25,3.2473,7.77116e-06
59,25,3.27843,6.53586e-06
60,25,3.3092,5.27659e-06
61,25,3.33961,3.99336e-06
62,25,3.36963,2.68619e-06
63,25,3.39924,1.35507e-06
1,26,1.52486,4.59825e-05
2,26,1.54887,4.58768e-05
3,26,1.57324,4.57471e-05
4,26,1.59798,4.55941e-05
5,26,1.62308,4.54185e-05
6,26,1.64854,4.52209e-05
7,26,1.67436,4.50021e-05
8,26,1.70055,4.47624e-05
9,26,1.72709,4.45026e-05
10,26,1.75398,4.4223e-05
11,26,1.78123,4.39242e-05
12,26,1.80882,4.36065e-05
13,26,1.83676,4.32703e-05
14,26,1.86504,4.2916e-05
15,26,1.89365,4.25438e-05
16,26,1.9226,4.21539e-05
17,26,1.95186,4.17465e-05
18,26,1.98145,4.13219e-05
19,26,2.01135,4.088e-05
20,26,2.04155,4.04211e-05
21,26,2.07205,3.9945e-05
22,26,2.10284,3.94519e-05
23,26,2.13391,3.89416e-05
24,26,2.16526,3.84141e-05
25,26,2.19687,3.78693e-05
26,26,2.22873,3.73069e-05
27,26,2.26084,3.67269e-05
28,26,2.29319,3.61289e-05
29,26,2.32575,3.55128e-05
30,26,2.35852,3.48783e-05
31,26,2.3915,3.4225e-05
32,26,2.42466,3.35527e-05
33,26,2.45799,3.28609e-05
34,26,2.49147,3.21494e-05
35,26,2.52511,3.14177e-05
36,26,2.55887,3.06655e-05
37,26,2.59274,2.98923e-05
38,26,2.62672,2.90978e-05
39,26,2.66077,2.82815e-05
40,26,2.69489,2.74431e-05
41,26,2.72906,2.65821e-05
42,26,2.76326,2.56982e-05
43,26,2.79746,2.47909e-05
44,26,2.83167,2.386e-05
45,26,2.86584,2.29051e-05
46,26,2.89997,2.19259e-05
47,26,2.93404,2.09221e-05
48,26,2.96802,1.98935e-05
49,26,3.0019,1.88399e-05
50,26,3.03564,1.77611e-05
51,26,3.06924,1.6657e-05
52,26,3.10267,1.55275e-05
53,26,3.13591,1.43724e-05
54,26,3.16893,1.31919e-05
55,26,3.20172,1.19859e-05
56,26,3.23425,1.07545e-05
57,26,3.2665,9.49767e-06
58,26,3.29844,8.21561e-06
59,26,3.33005,6.9084e-06
60,26,3.36132,5.57618e-06
61,26,3.39221,4.21909e-06
62,26,3.4227,2.83728e-06
63,26,3.45277,1.43088e-06
1,27,1.54888,4.81729e-05
2,27,1.57326,4.80652e-05
3,27,1.59802,4.79329e-05
4,27,1.62314,4.77766e-05
5,27,1.64864,4.75972e-05
6,27,1.6745,4.73952e-05
7,27,1.70073,4.71713e-05
8,27,1.72733,4.6926e-05
9,27,1.75429,4.66599e-05
10,27,1.78161,4.63735e-05
11,27,1.80928,4.60672e-05
12,27,1.83731,4.57414e-05
13,27,1.86569,4.53964e-05
14,27,1.89441,4.50326e-05
15,27,1.92347,4.46502e-05
16,27,1.95287,4.42495e-05
17,27,1.9826,4.38306e-05
18,27,2.01265,4.33935e-05
19,27,2.04302,4.29385e-05
20,27,2.0737,4.24655e-05
21,27,2.10468,4.19746e-05
22,27,2.13596,4.14657e-05
23,27,2.16752,4.09386e-05
24,27,2.19936,4.03934e-05
25,27,2.23147,3.98297e-05
26,27,2.26383,3.92475e-05
27,27,2.29645,3.86464e-05
28,27,2.3293,3.80263e-05
29,27,2.36238,3.73867e-05
30,27,2.39567,3.67274e-05
31,27,2.42916,3.60481e-05
32,27,2.46284,3.53482e-05
33,27,2.49669,3.46275e-05
34,27,2.53071,3.38855e-05
35,27,2.56487,3.31218e-05
36,27,2.59916,3.23359e-05
37,27,2.63357,3.15274e-05
38,27,2.66808,3.06959e-05
39,27,2.70267,2.98408e-05
40,27,2.73733,2.89617e-05
41,27,2.77204,2.80582e-05
42,27,2.80677,2.71298e-05
43,27,2.84152,2.61763e-05
44,27,2.87626,2.51971e-05
45,27,2.91097,2.41919e-05
46,27,2.94564,2.31605e-05
47,27,2.98025,2.21025e-05
48,27,3.01476,2.10177e-05
49,27,3.04917,1.9906e-05
50,27,3.08345,1.87671e-05
51,27,3.11758,1.7601e-05
52,27,3.15153,1.64076e-05
53,27,3.18529,1.51869e-05
54,27,3.21884,1.3939e-05
55,27,3.25214,1.26639e-05
56,27,3.28518,1.13618e-05
57,27,3.31794,1.00329e-05
58,27,3.35038,8.67744e-06
59,27,3.38249,7.29556e-06
60,27,3.41425,5.88756e-06
61,27,3.44563,4.45372e-06
62,27,3.4766,2.99434e-06
63,27,3.50714,1.50967e-06
1,28,1.57327,5.04047e-05
2,28,1.59804,5.0295e-05
3,28,1.62318,5.01602e-05
4,28,1.6487,5.00008e-05
5,28,1.6746,4.98177e-05
6,28,1.70087,4.96115e-05
7,28,1.72752,4.93827e-05
8,28,1.75453,4.91321e-05
9,28,1.78192,4.88601e-05
10,28,1.80967,4.85671e-05
11,28,1.83778,4.82537e-05
12,28,1.86625,4.79202e-05
13,28,1.89507,4.75669e-05
14,28,1.92425,4.7194e-05
15,28,1.95377,4.6802e-05
16,28,1.98363,4.63908e-05
17,28,2.01382,4.59608e-05
18,28,2.04435,4.55119e-05
19,28,2.07519,4.50441e-05
20,28,2.10636,4.45576e-05
21,28,2.13783,4.40523e-05
22,28,2.16959,4.3528e-05
23,28,2.20165,4.29847e-05
24,28,2.234,4.24221e-05
25,28,2.26661,4.18401e-05
26,28,2.29949,4.12384e-05
27,28,2.33261,4.06167e-05
28,28,2.36598,3.99746e-05
29,28,2.39958,3.93119e-05
30,28,2.43339,3.86281e-05
31,28,2.46741,3.79228e-05
32,28,2.50162,3.71956e-05
33,28,2.53601,3.64461e-05
34,28,2.57056,3.56736e-05
35,28,2.60526,3.48778e-05
36,28,2.6401,3.40581e-05
37,28,2.67505,3.3214e-05
38,28,2.7101,3.2345e-05
39,28,2.74523,3.14507e-05
40,28,2.78044,3.05304e-05
41,28,2.81569,2.95838e-05
42,28,2.85097,2.86103e-05
43,28,2.88627,2.76095e-05
44,28,2.92156,2.6581e-05
45,28,2.95682,2.55245e-05
46,28,2.99203,2.44396e-05
47,28,3.02718,2.3326e-05
48,28,3.06224,2.21834e-05
49,28,3.09719,2.10118e-05
50,28,3.13201,1.9811e-05
51,28,3.16667,1.85809e-05
52,28,3.20116,1.73215e-05
53,28,3.23546,1.60329e-05
54,28,3.26953,1.47152e-05
55,28,3.30336,1.33686e-05
56,28,3.33692,1.19933e-05
57,28,3.37019,1.05896e-05
58,28,3.40314,9.15777e-06
59,28,3.43576,7.69828e-06
60,28,3.46802,6.21149e-06
61,28,3.49989,4.69783e-06
62,28,3.53135,3.15774e-06
63,28,3.56237,1.59165e-06
1,29,1.59805,5.26788e-05
2,29,1.6232,5.25672e-05
3,29,1.64875,5.24299e-05
4,29,1.67467,5.22675e-05
5,29,1.70097,5.20809e-05
6,29,1.72766,5.18707e-05
7,29,1.75472,5.16374e-05
8,29,1.78216,5.13817e-05
9,29,1.80998,5.11041e-05
10,29,1.83816,5.0805e-05
11,29,1.86672,5.04848e-05
12,29,1.89564,5.01439e-05
13,29,1.92492,4.97827e-05
14,29,1.95455,4.94014e-05
15,29,1.98454,4.90001e-05
16,29,2.01487,4.85791e-05
17,29,2.04554,4.81384e-05
18,29,2.07654,4.76781e-05
19,29,2.10788,4.71982e-05
20,29,2.13953,4.66987e-05
21,29,2.17149,4.61795e-05
22,29,2.20376,4.56404e-05
23,29,2.23633,4.50813e-05
24,29,2.26918,4.45019e-05
25,29,2.3023,4.3902e-05
26,29,2.3357,4.32812e-05
27,29,2.36935,4.26393e-05
28,29,2.40324,4.19757e-05
29,29,2.43737,4.12902e-05
30,29,2.47172,4.05822e-05
31,29,2.50627,3.98513e-05
32,29,2.54102,3.90969e-05
33,29,2.57595,3.83186e-05
34,29,2.61105,3.75157e-05
35,29,2.64629,3.66878e-05
36,29,2.68167,3.58341e-05
37,29,2.71717,3.49543e-05
38,29,2.75278,3.40477e-05
39,29,2.78847,3.31136e-05
40,29,2.82422,3.21517e-05
41,29,2.86003,3.11613e-05
42,29,2.89587,3.01419e-05
43,29,2.93172,2.9093e-05
44,29,2.96756,2.80143e-05
45,29,3.00338,2.69052e-05
46,29,3.03915,2.57655e-05
47,29,3.07485,2.45948e-05
48,29,3.11046,2.3393e-05
49,29,3.14596,2.21598e-05
50,29,3.18133,2.08951e-05
51,29,3.21654,1.9599e-05
52,29,3.25157,1.82714e-05
53,29,3.28641,1.69125e-05
54,29,3.32102,1.55225e-05
55,29,3.35538,1.41017e-05
56,29,3.38947,1.26503e-05
57,29,3.42326,1.11689e-05
58,29,3.45673,9.6578e-06
59,29,3.48987,8.11758e-06
60,29,3.52263,6.5488e-06
61,29,3.555,4.95204e-06
62,29,3.58696,3.32791e-06
63,29,3.61847,1.67702e-06
1,30,1.62321,5.49959e-05
2,30,1.64877,5.48825e-05
3,30,1.67471,5.47428e-05
4,30,1.70104,5.45776e-05
5,30,1.72776,5.43877e-05
6,30,1.75487,5.41736e-05
7,30,1.78236,5.39361e-05
8,30,1.81023,5.36757e-05
9,30,1.83848,5.33928e-05
10,30,1.86711,5.30879e-05
11,30,1.89612,5.27614e-05
12,30,1.92549,5.24137e-05
13,30,1.95523,5.2045e-05
14,30,1.98533,5.16556e-05
15,30,2.01579,5.12457e-05
16,30,2.0466,5.08153e-05
17,30,2.07775,5.03646e-05
18,30,2.10925,4.98935e-05
19,30,2.14107,4.94021e-05
20,30,2.17322,4.88901e-05
21,30,2.20569,4.83576e-05
22,30,2.23847,4.78043e-05
23,30,2.27154,4.723e-05
24,30,2.30491,4.66343e-05
25,30,2.33856,4.60171e-05
26,30,2.37248,4.53778e-05
27,30,2.40666,4.47161e-05
28,30,2.44109,4.40315e-05
29,30,2.47575,4.33235e-05
30,30,2.51064,4.25917e-05
31,30,2.54574,4.18354e-05
32,30,2.58104,4.10542e-05
33,30,2.61652,4.02472e-05
34,30,2.65217,3.94141e-05
35,30,2.68797,3.8554e-05
36,30,2.7239,3.76665e-05
37,30,2.75996,3.67507e-05
38,30,2.79613,3.58061e-05
39,30,2.83238,3.48321e-05
40,30,2.8687,3.3828e-05
41,30,2.90507,3.27932e-05
42,30,2.94147,3.17272e-05
43,30,2.97789,3.06294e-05
44,30,3.0143,2.94994e-05
45,30,3.05068,2.83367e-05
46,30,3.08701,2.71408e-05
47,30,3.12327,2.59117e-05
48,30,3.15945,2.46488e-05
49,30,3.1955,2.33522e-05
50,30,3.23143,2.20218e-05
51,30,3.26719,2.06575e-05
52,30,3.30278,1.92594e-05
53,30,3.33816,1.78278e-05
54,30,3.37331,1.63629e-05
55,30,3.40822,1.4865e-05
56,30,3.44284,1.33347e-05
57,30,3.47717,1.17724e-05
58,30,3.51117,1.01788e-05
59,30,3.54482,8.55457e-06
60,30,3.5781,6.90038e-06
61,30,3.61099,5.21703e-06
62,30,3.64344,3.5053e-06
63,30,3.67545,1.76602e-06
1,31,1.64878,5.73568e-05
2,31,1.67473,5.72416e-05
3,31,1.70109,5.70997e-05
4,31,1.72783,5.69318e-05
5,31,1.75497,5.67388e-05
6,31,1.7825,5.65212e-05
7,31,1.81043,5.62797e-05
8,31,1.83874,5.60148e-05
9,31,1.86744,5.5727e-05
10,31,1.89652,5.54168e-05
11,31,1.92598,5.50845e-05
12,31,1.95581,5.47304e-05
13,31,1.98602,5.43548e-05
14,31,2.0166,5.39579e-05
15,31,2.04753,5.35399e-05
16,31,2.07883,5.31008e-05
17,31,2.11047,5.26406e-05
18,31,2.14246,5.21593e-05
19,31,2.17479,5.16569e-05
20,31,2.20745,5.11333e-05
21,31,2.24043,5.05881e-05
22,31,2.27372,5.00212e-05
23,31,2.30732,4.94323e-05
24,31,2.34121,4.8821e-05
25,31,2.37539,4.8187e-05
26,31,2.40984,4.75297e-05
27,31,2.44456,4.68488e-05
28,31,2.47953,4.61437e-05
29,31,2.51474,4.54139e-05
30,31,2.55018,4.46586e-05
31,31,2.58583,4.38774e-05
32,31,2.62168,4.30695e-05
33,31,2.65772,4.22343e-05
34,31,2.69393,4.1371e-05
35,31,2.7303,4.0479e-05
36,31,2.7668,3.95574e-05
37,31,2.80343,3.86057e-05
38,31,2.84016,3.7623e-05
39,31,2.87698,3.66087e-05
40,31,2.91388,3.5562e-05
41,31,2.95082,3.44823e-05
42,31,2.9878,3.3369e-05
43,31,3.02479,3.22215e-05
44,31,3.06177,3.10391e-05
45,31,3.09872,2.98216e-05
46,31,3.13562,2.85683e-05
47,31,3.17246,2.72791e-05
48,31,3.2092,2.59537e-05
49,31,3.24583,2.45918e-05
50,31,3.28232,2.31935e-05
51,31,3.31865,2.17588e-05
52,31,3.35479,2.02879e-05
53,31,3.39073,1.87809e-05
54,31,3.42644,1.72383e-05
55,31,3.46189,1.56605e-05
56,31,3.49706,1.40481e-05
57,31,3.53193,1.24017e-05
58,31,3.56646,1.07223e-05
59,31,3.60065,9.01043e-06
60,31,3.63445,7.2672e-06
61,31,3.66785,5.49353e-06
62,31,3.70082,3.69042e-06
63,31,3.73333,1.8589e-06
1,32,1.67474,5.97623e-05
2,32,1.70111,5.96453e-05
3,32,1.72787,5.95012e-05
4,32,1.75504,5.93309e-05
5,32,1.78261,5.9135e-05
6,32,1.81058,5.89141e-05
7,32,1.83894,5.8669e-05
8,32,1.8677,5.84e-05
9,32,1.89685,5.81078e-05
10,32,1.92638,5.77926e-05
11,32,1.95631,5.7455e-05
12,32,1.98661,5.7095e-05
13,32,2.0173,5.67131e-05
14,32,2.04836,5.63093e-05
15,32,2.07978,5.58838e-05
16,32,2.11157,5.54365e-05
17,32,2.14371,5.49676e-05
18,32,2.1762,5.44769e-05
19,32,2.20904,5.39642e-05
20,32,2.24221,5.34294e-05
21,32,2.27571,5.28723e-05
22,32,2.30953,5.22926e-05
23,32,2.34365,5.16898e-05
24,32,2.37808,5.10635e-05
25,32,2.4128,5.04134e-05
26,32,2.4478,4.97389e-05
27,32,2.48306,4.90394e-05
28,32,2.51858,4.83144e-05
29,32,2.55435,4.75631e-05
30,32,2.59034,4.6785e-05
31,32,2.62655,4.59793e-05
32,32,2.66297,4.51452e-05
33,32,2.69958,4.4282e-05
34,32,2.73636,4.33888e-05
35,32,2.77329,4.2465e-05
36,32,2.81037,4.15096e-05
37,32,2.84758,4.05218e-05
38,32,2.88489,3.95009e-05
39,32,2.92229,3.84461e-05
40,32,2.95977,3.73564e-05
41,32,2.99729,3.62313e-05
42,32,3.03485,3.50701e-05
43,32,3.07242,3.38719e-05
44,32,3.10998,3.26364e-05
45,32,3.14752,3.13628e-05
46,32,3.185,3.00509e-05
47,32,3.22242,2.87001e-05
48,32,3.25974,2.73104e-05
49,32,3.29694,2.58814e-05
50,32,3.33401,2.44131e-05
51,32,3.37091,2.29057e-05
52,32,3.40762,2.13594e-05
53,32,3.44413,1.97743e-05
54,32,3.4804,1.81511e-05
55,32,3.51641,1.64902e-05
56,32,3.55213,1.47925e-05
57,32,3.58755,1.30586e-05
58,32,3.62263,1.12896e-05
59,32,3.65735,9.48648e-06
60,32,3.69169,7.65033e-06
61,32,3.72561,5.78236e-06
62,32,3.7591,3.8838e-06
63,32,3.79213,1.95592e-06
1,33,1.70112,6.22129e-05
2,33,1.7279,6.20942e-05
3,33,1.75509,6.19482e-05
4,33,1.78268,6.17755e-05
5,33,1.81068,6.15769e-05
6,33,1.83909,6.13531e-05
7,33,1.8679,6.11046e-05
8,33,1.89711,6.0832e-05
9,33,1.92672,6.05357e-05
10,33,1.95672,6.02162e-05
11,33,1.98712,5.98737e-05
12,33,2.0179,5.95085e-05
13,33,2.04907,5.91208e-05
14,33,2.08061,5.87108e-05
15,33,2.11253,5.82784e-05
16,33,2.14482,5.78238e-05
17,33,2.17747,5.73468e-05
18,33,2.21048,5.68473e-05
19,33,2.24383,5.63251e-05
20,33,2.27752,5.57801e-05
21,33,2.31155,5.52118e-05
22,33,2.3459,5.46199e-05
23,33,2.38056,5.4004e-05
24,33,2.41553,5.33636e-05
25,33,2.4508,5.26981e-05
26,33,2.48634,5.20071e-05
27,33,2.52216,5.12897e-05
28,33,2.55824,5.05454e-05
29,33,2.59457,4.97734e-05
30,33,2.63113,4.8973e-05
31,33,2.66792,4.81433e-05
32,33,2.70491,4.72835e-05
33,33,2.74209,4.63927e-05
34,33,2.77945,4.547e-05
35,33,2.81697,4.45146e-05
36,33,2.85463,4.35255e-05
37,33,2.89242,4.25018e-05
38,33,2.93032,4.14427e-05
39,33,2.96831,4.03471e-05
40,33,3.00638,3.92142e-05
41,33,3.04449,3.80432e-05
42,33,3.08264,3.68334e-05
43,33,3.1208,3.55839e-05
44,33,3.15896,3.42942e-05
45,33,3.19709,3.29635e-05
46,33,3.23516,3.15915e-05
47,33,3.27317,3.01778e-05
48,33,3.31107,2.87219e-05
49,33,3.34886,2.72238e-05
50,33,3.38651,2.56835e-05
51,33,3.42399,2.4101e-05
52,33,3.46129,2.24766e-05
53,33,3.49836,2.08107e-05
54,33,3.5352,1.91038e-05
55,33,3.57178,1.73566e-05
56,33,3.60807,1.557e-05
57,33,3.64404,1.3745e-05
58,33,3.67968,1.18826e-05
59,33,3.71494,9.98413e-06
60,33,3.74982,8.05092e-06
61,33,3.78428,6.08439e-06
62,33,3.8183,4.08604e-06
63,33,3.85184,2.05739e-06
1,34,1.72791,6.47093e-05
2,34,1.75511,6.4589e-05
3,34,1.78273,6.44411e-05
4,34,1.81076,6.42663e-05
5,34,1.8392,6.40653e-05
6,34,1.86805,6.38388e-05
7,34,1.89732,6.35874e-05
8,34,1.92699,6.33116e-05
9,34,1.95706,6.30117e-05
10,34,1.98754,6.26883e-05
11,34,2.01841,6.23415e-05
12,34,2.04968,6.19717e-05
13,34,2.08134,6.15789e-05
14,34,2.11338,6.11633e-05
15,34,2.1458,6.07249e-05
16,34,2.1786,6.02636e-05
17,34,2.21176,5.97793e-05
18,34,2.24529,5.92719e-05
19,34,2.27916,5.87411e-05
20,34,2.31339,5.81865e-05
21,34,2.34795,5.76079e-05
22,34,2.38284,5.70048e-05
23,34,2.41805,5.63766e-05
24,34,2.45357,5.57229e-05
25,34,2.48939,5.50429e-05
26,34,2.5255,5.43361e-05
27,34,2.56188,5.36017e-05
28,34,2.59853,5.28389e-05
29,34,2.63543,5.20469e-05
30,34,2.67257,5.12248e-05
31,34,2.70993,5.03718e-05
32,34,2.74751,4.94868e-05
33,34,2.78527,4.85689e-05
34,34,2.82322,4.76172e-05
35,34,2.86133,4.66306e-05
36,34,2.89959,4.5608e-05
37,34,2.93797,4.45486e-05
38,34,2.97647,4.34511e-05
39,34,3.01506,4.23147e-05
40,34,3.05372,4.11384e-05
41,34,3.09244,3.99212e-05
42,34,3.13119,3.86622e-05
43,34,3.16995,3.73607e-05
44,34,3.20871,3.60158e-05
45,34,3.24743,3.4627e-05
46,34,3.28611,3.31936e-05
47,34,3.32471,3.17153e-05
48,34,3.36322,3.01916e-05
49,34,3.4016,2.86225e-05
50,34,3.43984,2.70078e-05
51,34,3.47791,2.53478e-05
52,34,3.51579,2.36426e-05
53,34,3.55346,2.18928e-05
54,34,3.59088,2.0099e-05
55,34,3.62803,1.82621e-05
56,34,3.66489,1.6383e-05
57,34,3.70143,1.44628e-05
58,34,3.73762,1.2503e-05
59,34,3.77345,1.05049e-05
60,34,3.80887,8.47024e-06
61,34,3.84387,6.40059e-06
62,34,3.87843,4.29778e-06
63,34,3.9125,2.16363e-06
1,35,1.75512,6.72521e-05
2,35,1.78275,6.71303e-05
3,35,1.8108,6.69806e-05
4,35,1.83927,6.68039e-05
5,35,1.86816,6.66008e-05
6,35,1.89747,6.6372e-05
7,35,1.9272,6.6118e-05
8,35,1.95733,6.58394e-05
9,35,1.98788,6.55365e-05
10,35,2.01884,6.52097e-05
11,35,2.0502,6.48593e-05
12,35,2.08196,6.44855e-05
13,35,2.11412,6.40883e-05
14,35,2.14666,6.36679e-05
15,35,2.1796,6.32242e-05
16,35,2.21291,6.2757e-05
17,35,2.24659,6.22664e-05
18,35,2.28065,6.17519e-05
19,35,2.31506,6.12133e-05
20,35,2.34982,6.06502e-05
21,35,2.38493,6.00622e-05
22,35,2.42037,5.94487e-05
23,35,2.45613,5.88092e-05
24,35,2.49221,5.8143e-05
25,35,2.5286,5.74495e-05
26,35,2.56527,5.67278e-05
27,35,2.60223,5.59772e-05
28,35,2.63945,5.51968e-05
29,35,2.67694,5.43856e-05
30,35,2.71466,5.35427e-05
31,35,2.75261,5.2667e-05
32,35,2.79077,5.17576e-05
33,35,2.82914,5.08133e-05
34,35,2.86768,4.9833e-05
35,35,2.90639,4.88156e-05
36,35,2.94525,4.77599e-05
37,35,2.98424,4.66649e-05
38,35,3.02334,4.55293e-05
39,35,3.06254,4.43521e-05
40,35,3.10181,4.31321e-05
41,35,3.14114,4.18684e-05
42,35,3.1805,4.05598e-05
43,35,3.21987,3.92056e-05
44,35,3.25924,3.78048e-05
45,35,3.29858,3.63567e-05
46,35,3.33786,3.48607e-05
47,35,3.37707,3.33163e-05
48,35,3.41618,3.1723e-05
49,35,3.45517,3.00808e-05
50,35,3.49401,2.83895e-05
51,35,3.53268,2.66493e-05
52,35,3.57116,2.48606e-05
53,35,3.60942,2.30238e-05
54,35,3.64743,2.11398e-05
55,35,3.68516,1.92094e-05
56,35,3.7226,1.72339e-05
57,35,3.75972,1.52145e-05
58,35,3.79648,1.31528e-05
59,35,3.83287,1.10506e-05
60,35,3.86885,8.90968e-06
61,35,3.90441,6.73202e-06
62,35,3.9395,4.51974e-06
63,35,3.97411,2.275e-06
1,36,1.78276,6.98416e-05
2,36,1.81083,6.97184e-05
3,36,1.83932,6.95671e-05
4,36,1.86824,6.93887e-05
5,36,1.89758,6.91838e-05
6,36,1.92735,6.8953e-05
7,36,1.95755,6.86969e-05
8,36,1.98816,6.8416e-05
9,36,2.01919,6.81107e-05
10,36,2.05063,6.77812e-05
11,36,2.08249,6.74278e-05
12,36,2.11475,6.70507e-05
13,36,2.14741,6.66499e-05
14,36,2.18047,6.62255e-05
15,36,2.21392,6.57773e-05
16,36,2.24776,6.53052e-05
17,36,2.28197,6.48091e-05
18,36,2.31656,6.42885e-05
19,36,2.35152,6.3743e-05
20,36,2.38683,6.31724e-05
21,36,2.42249,6.2576e-05
22,36,2.45848,6.19532e-05
23,36,2.49481,6.13034e-05
24,36,2.53146,6.06258e-05
25,36,2.56842,5.99197e-05
26,36,2.60567,5.91842e-05
27,36,2.64321,5.84184e-05
28,36,2.68102,5.76212e-05
29,36,2.71909,5.67918e-05
30,36,2.75741,5.59289e-05
31,36,2.79596,5.50315e-05
32,36,2.83472,5.40984e-05
33,36,2.87369,5.31283e-05
34,36,2.91284,5.21201e-05
35,36,2.95216,5.10725e-05
36,36,2.99163,4.99842e-05
37,36,3.03124,4.88539e-05
38,36,3.07096,4.76805e-05
39,36,3.11077,4.64625e-05
40,36,3.15066,4.51988e-05
41,36,3.1906,4.38883e-05
42,36,3.23059,4.25298e-05
43,36,3.27058,4.11223e-05
44,36,3.31057,3.96647e-05
45,36,3.35052,3.81564e-05
46,36,3.39042,3.65965e-05
47,36,3.43025,3.49844e-05
48,36,3.46998,3.33198e-05
49,36,3.50958,3.16024e-05
50,36,3.54904,2.98322e-05
51,36,3.58832,2.80093e-05
52,36,3.6274,2.6134e-05
53,36,3.66626,2.4207e-05
54,36,3.70487,2.22292e-05
55,36,3.7432,2.02016e-05
56,36,3.78123,1.81255e-05
57,36,3.81893,1.60025e-05
58,36,3.85627,1.38343e-05
59,36,3.89323,1.16231e-05
60,36,3.92978,9.37079e-06
61,36,3.96589,7.07986e-06
62,36,4.00154,4.75272e-06
63,36,4.0367,2.39191e-06
1,37,1.81084,7.24784e-05
2,37,1.83934,7.23538e-05
3,37,1.86829,7.22012e-05
4,37,1.89766,7.20213e-05
5,37,1.92747,7.18149e-05
6,37,1.95771,7.15826e-05
7,37,1.98838,7.13248e-05
8,37,2.01947,7.10422e-05
9,37,2.05099,7.07349e-05
10,37,2.08293,7.04034e-05
11,37,2.11528,7.00478e-05
12,37,2.14805,6.96681e-05
13,37,2.18123,6.92646e-05
14,37,2.21481,6.8837e-05
15,37,2.24879,6.83853e-05
16,37,2.28316,6.79092e-05
17,37,2.31791,6.74085e-05
18,37,2.35304,6.68828e-05
19,37,2.38855,6.63317e-05
20,37,2.42442,6.57545e-05
21,37,2.46064,6.51508e-05
22,37,2.4972,6.45198e-05
23,37,2.5341,6.38608e-05
24,37,2.57133,6.31729e-05
25,37,2.60887,6.24554e-05
26,37,2.64671,6.17071e-05
27,37,2.68484,6.09272e-05
28,37,2.72324,6.01144e-05
29,37,2.76191,5.92677e-05
30,37,2.80083,5.83859e-05
31,37,2.83999,5.74677e-05
32,37,2.87937,5.65117e-05
33,37,2.91895,5.55168e-05
34,37,2.95871,5.44814e-05
35,37,2.99865,5.34043e-05
36,37,3.03875,5.22839e-05
37,37,3.07897,5.11189e-05
38,37,3.11932,4.99079e-05
39,37,3.15976,4.86494e-05
40,37,3.20028,4.73421e-05
41,37,3.24085,4.59847e-05
42,37,3.28146,4.45759e-05
43,37,3.32208,4.31146e-05
44,37,3.3627,4.15996e-05
45,37,3.40329,4.003e-05
46,37,3.44382,3.8405e-05
47,37,3.48427,3.67239e-05
48,37,3.52462,3.49862e-05
49,37,3.56485,3.31916e-05
50,37,3.60493,3.134e-05
51,37,3.64483,2.94316e-05
52,37,3.68452,2.74668e-05
53,37,3.72399,2.54462e-05
54,37,3.76321,2.33708e-05
55,37,3.80214,2.12419e-05
56,37,3.84077,1.90609e-05
57,37,3.87907,1.68295e-05
58,37,3.917,1.45499e-05
59,37,3.95454,1.22243e-05
60,37,3.99167,9.85527e-06
61,37,4.02835,7.4454e-06
62,37,4.06456,4.99759e-06
63,37,4.10027,2.51479e-06
1,38,1.83936,7.51628e-05
2,38,1.86831,7.50369e-05
3,38,1.89771,7.48831e-05
4,38,1.92755,7.47021e-05
5,38,1.95782,7.44945e-05
6,38,1.98854,7.4261e-05
7,38,2.01969,7.40021e-05
8,38,2.05127,7.37183e-05
9,38,2.08329,7.34098e-05
10,38,2.11573,7.30769e-05
11,38,2.14859,7.27198e-05
12,38,2.18188,7.23385e-05
13,38,2.21558,7.19331e-05
14,38,2.24969,7.15033e-05
15,38,2.2842,7.1049e-05
16,38,2.31911,7.057e-05
17,38,2.35441,7.00659e-05
18,38,2.3901,6.95362e-05
19,38,2.42616,6.89804e-05
20,38,2.4626,6.83979e-05
21,38,2.49939,6.77881e-05
22,38,2.53653,6.71501e-05
23,38,2.57401,6.64831e-05
24,38,2.61182,6.57862e-05
25,38,2.64995,6.50583e-05
26,38,2.68839,6.42986e-05
27,38,2.72712,6.35057e-05
28,38,2.76613,6.26785e-05
29,38,2.80541,6.18157e-05
30,38,2.84494,6.0916e-05
31,38,2.88472,5.99781e-05
32,38,2.92471,5.90004e-05
33,38,2.96491,5.79815e-05
34,38,3.00531,5.69199e-05
35,38,3.04588,5.5814e-05
36,38,3.0866,5.46622e-05
37,38,3.12746,5.34631e-05
38,38,3.16844,5.2215e-05
39,38,3.20952,5.09163e-05
40,38,3.25067,4.95656e-05
41,38,3.29189,4.81613e-05
42,38,3.33314,4.67021e-05
43,38,3.3744,4.51865e-05
44,38,3.41566,4.36135e-05
45,38,3.45688,4.19818e-05
46,38,3.49805,4.02905e-05
47,38,3.53914,3.85389e-05
48,38,3.58013,3.67263e-05
49,38,3.62099,3.48524e-05
50,38,3.6617,3.29171e-05
51,38,3.70222,3.09205e-05
52,38,3.74255,2.88629e-05
53,38,3.78264,2.67453e-05
54,38,3.82247,2.45685e-05
55,38,3.86202,2.23339e-05
56,38,3.90126,2.00433e-05
57,38,3.94015,1.76987e-05
58,38,3.97868,1.53023e-05
59,38,4.01682,1.28568e-05
60,38,4.05453,1.0365e-05
61,38,4.09178,7.8301e-06
62,38,4.12856,5.25533e-06
63,38,4.16484,2.64413e-06
1,39,1.86832,7.7895e-05
2,39,1.89773,7.7768e-05
3,39,1.92759,7.76132e-05
4,39,1.9579,7.74313e-05
5,39,1.98866,7.72229e-05
6,39,2.01986,7.69887e-05
7,39,2.0515,7.67293e-05
8,39,2.08358,7.64449e-05
9,39,2.1161,7.61358e-05
10,39,2.14905,7.58024e-05
11,39,2.18243,7.54446e-05
12,39,2.21624,7.50626e-05
13,39,2.25047,7.46561e-05
14,39,2.28512,7.42252e-05
15,39,2.32017,7.37695e-05
16,39,2.35563,7.32886e-05
17,39,2.39149,7.27822e-05
18,39,2.42774,7.22497e-05
19,39,2.46437,7.16905e-05
20,39,2.50138,7.1104e-05
21,39,2.53875,7.04893e-05
22,39,2.57647,6.98455e-05
23,39,2.61455,6.91719e-05
24,39,2.65295,6.84672e-05
25,39,2.69168,6.77305e-05
26,39,2.73072,6.69605e-05
27,39,2.77006,6.6156e-05
28,39,2.80969,6.53157e-05
29,39,2.84959,6.44381e-05
30,39,2.88975,6.35218e-05
31,39,2.93014,6.25653e-05
32,39,2.97077,6.1567e-05
33,39,3.01161,6.05253e-05
34,39,3.05264,5.94384e-05
35,39,3.09384,5.83048e-05
36,39,3.13521,5.71225e-05
37,39,3.17671,5.589e-05
38,39,3.21834,5.46054e-05
39,39,3.26006,5.3267e-05
40,39,3.30187,5.18732e-05
41,39,3.34373,5.04222e-05
42,39,3.38563,4.89124e-05
43,39,3.42754,4.73425e-05
44,39,3.46945,4.57108e-05
45,39,3.51132,4.40163e-05
46,39,3.55314,4.22577e-05
47,39,3.59488,4.04342e-05
48,39,3.63651,3.8545e-05
49,39,3.67801,3.65898e-05
50,39,3.71936,3.45683e-05
51,39,3.76053,3.24806e-05
52,39,3.80148,3.03271e-05
53,39,3.84221,2.81086e-05
54,39,3.88267,2.58263e-05
55,39,3.92284,2.34817e-05
56,39,3.96269,2.10766e-05
57,39,4.0022,1.86133e-05
58,39,4.04134,1.60944e-05
59,39,4.08007,1.35229e-05
60,39,4.11838,1.09021e-05
61,39,4.15622,8.23556e-06
62,39,4.19358,5.52704e-06
63,39,4.23042,2.7805e-06
1,40,1.89775,8.06752e-05
2,40,1.92762,8.05473e-05
3,40,1.95795,8.03917e-05
4,40,1.98874,8.02091e-05
5,40,2.01998,8.00004e-05
6,40,2.05166,7.97661e-05
7,40,2.0838,7.95066e-05
8,40,2.11639,7.92223e-05
9,40,2.14942,7.89134e-05
10,40,2.18289,7.85802e-05
11,40,2.2168,7.82227e-05
12,40,2.25114,7.78409e-05
13,40,2.28591,7.74345e-05
14,40,2.3211,7.70035e-05
15,40,2.35671,7.65475e-05
16,40,2.39273,7.6066e-05
17,40,2.42916,7.55585e-05
18,40,2.46597,7.50245e-05
19,40,2.50318,7.44632e-05
20,40,2.54077,7.3874e-05
21,40,2.57873,7.32558e-05
22,40,2.61705,7.26078e-05
23,40,2.65572,7.19288e-05
24,40,2.69473,7.12179e-05
25,40,2.73407,7.04737e-05
26,40,2.77373,6.96949e-05
27,40,2.81369,6.88803e-05
28,40,2.85394,6.80282e-05
29,40,2.89447,6.71373e-05
30,40,2.93525,6.62058e-05
31,40,2.97629,6.52321e-05
32,40,3.01755,6.42145e-05
33,40,3.05903,6.31512e-05
34,40,3.10071,6.20403e-05
35,40,3.14257,6.08799e-05
36,40,3.18458,5.96682e-05
37,40,3.22674,5.84032e-05
38,40,3.26902,5.70829e-05
39,40,3.3114,5.57055e-05
40,40,3.35387,5.4269e-05
41,40,3.39639,5.27716e-05
42,40,3.43895,5.12115e-05
43,40,3.48152,4.95869e-05
44,40,3.52408,4.78963e-05
45,40,3.56662,4.61382e-05
46,40,3.60909,4.43114e-05
47,40,3.65149,4.24147e-05
48,40,3.69378,4.04474e-05
49,40,3.73593,3.84087e-05
50,40,3.77793,3.62986e-05
51,40,3.81975,3.41169e-05
52,40,3.86135,3.18642e-05
53,40,3.90271,2.95412e-05
54,40,3.94381,2.71491e-05
55,40,3.98462,2.46896e-05
56,40,4.0251,2.21647e-05
57,40,4.06523,1.95771e-05
58,40,4.10498,1.69296e-05
59,40,4.14432,1.42256e-05
60,40,4.18323,1.1469e-05
61,40,4.22167,8.66359e-06
62,40,4.25962,5.81392e-06
63,40,4.29704,2.9245e-06
1,41,1.92763,8.35036e-05
2,41,1.95798,8.33748e-05
3,41,1.98879,8.32186e-05
4,41,2.02006,8.30359e-05
5,41,2.05179,8.28272e-05
6,41,2.08398,8.25932e-05
7,41,2.11662,8.23343e-05
8,41,2.14972,8.20509e-05
9,41,2.18327,8.1743e-05
10,41,2.21727,8.1411e-05
11,41,2.25171,8.10547e-05
12,41,2.28659,8.0674e-05
13,41,2.32191,8.02689e-05
14,41,2.35766,7.9839e-05
15,41,2.39383,7.93838e-05
16,41,2.43041,7.89029e-05
17,41,2.46741,7.83958e-05
18,41,2.50481,7.78616e-05
19,41,2.5426,7.72997e-05
20,41,2.58078,7.67092e-05
21,41,2.61934,7.60891e-05
22,41,2.65826,7.54382e-05
23,41,2.69754,7.47556e-05
24,41,2.73717,7.40399e-05
25,41,2.77713,7.32898e-05
26,41,2.81741,7.25039e-05
27,41,2.858,7.16806e-05
28,41,2.89888,7.08184e-05
29,41,2.94005,6.99156e-05
30,41,2.98148,6.89705e-05
31,41,3.02316,6.79811e-05
32,41,3.06508,6.69457e-05
33,41,3.10721,6.58622e-05
34,41,3.14954,6.47286e-05
35,41,3.19206,6.35428e-05
36,41,3.23473,6.23028e-05
37,41,3.27756,6.10064e-05
38,41,3.3205,5.96515e-05
39,41,3.36355,5.82358e-05
40,41,3.40668,5.67574e-05
41,41,3.44987,5.5214e-05
42,41,3.4931,5.36037e-05
43,41,3.53635,5.19246e-05
44,41,3.57958,5.01749e-05
45,41,3.62278,4.83528e-05
46,41,3.66593,4.64568e-05
47,41,3.70899,4.44858e-05
48,41,3.75195,4.24387e-05
49,41,3.79477,4.03147e-05
50,41,3.83743,3.81135e-05
51,41,3.8799,3.5835e-05
52,41,3.92216,3.34796e-05
53,41,3.96417,3.10481e-05
54,41,4.00592,2.85418e-05
55,41,4.04737,2.59624e-05
56,41,4.08848,2.33123e-05
57,41,4.12925,2.05943e-05
58,41,4.16962,1.78117e-05
59,41,4.20959,1.49682e-05
60,41,4.24911,1.20682e-05
61,41,4.28815,9.11624e-06
62,41,4.3267,6.11738e-06
63,41,4.36471,3.07683e-06
1,42,1.95799,8.63801e-05
2,42,1.98881,8.62505e-05
3,42,2.02011,8.60941e-05
4,42,2.05187,8.59115e-05
5,42,2.0841,8.57034e-05
6,42,2.11679,8.54703e-05
7,42,2.14995,8.52127e-05
8,42,2.18358,8.49308e-05
9,42,2.21765,8.46249e-05
10,42,2.25219,8.42949e-05
11,42,2.28717,8.39409e-05
12,42,2.3226,8.35626e-05
13,42,2.35848,8.31599e-05
14,42,2.39479,8.27323e-05
15,42,2.43153,8.22793e-05
16,42,2.46869,8.18005e-05
17,42,2.50627,8.1295e-05
18,42,2.54426,8.07622e-05
19,42,2.58265,8.02012e-05
20,42,2.62143,7.9611e-05
21,42,2.66059,7.89905e-05
22,42,2.70013,7.83385e-05
23,42,2.74003,7.76538e-05
24,42,2.78028,7.69351e-05
25,42,2.82086,7.61807e-05
26,42,2.86178,7.53893e-05
27,42,2.90301,7.45592e-05
28,42,2.94454,7.36886e-05
29,42,2.98635,7.27757e-05
30,42,3.02843,7.18185e-05
31,42,3.07077,7.08152e-05
32,42,3.11335,6.97635e-05
33,42,3.15614,6.86614e-05
34,42,3.19914,6.75066e-05
35,42,3.24233,6.6297e-05
36,42,3.28568,6.503e-05
37,42,3.32917,6.37035e-05
38,42,3.37279,6.2315e-05
39,42,3.41652,6.08622e-05
40,42,3.46033,5.93426e-05
41,42,3.5042,5.77541e-05
42,42,3.54811,5.60941e-05
43,42,3.59204,5.43607e-05
44,42,3.63595,5.25518e-05
45,42,3.67984,5.06653e-05
46,42,3.72366,4.86997e-05
47,42,3.7674,4.66533e-05
48,42,3.81103,4.4525e-05
49,42,3.85453,4.23137e-05
50,42,3.89786,4.00191e-05
51,42,3.941,3.76408e-05
52,42,3.98392,3.51793e-05
53,42,4.0266,3.26353e-05
54,42,4.069,3.00101e-05
55,42,4.1111,2.73056e-05
56,42,4.15287,2.45244e-05
57,42,4.19427,2.16696e-05
58,42,4.23529,1.87447e-05
59,42,4.27588,1.57542e-05
60,42,4.31602,1.27028e-05
61,42,4.35568,9.5958e-06
62,42,4.39483,6.43896e-06
63,42,4.43345,3.23829e-06
1,43,1.98883,8.93046e-05
2,43,2.02013,8.91745e-05
3,43,2.05192,8.9018e-05
4,43,2.08418,8.88359e-05
5,43,2.11692,8.86289e-05
6,43,2.15013,8.83974e-05
7,43,2.18381,8.81418e-05
8,43,2.21796,8.78624e-05
9,43,2.25258,8.75592e-05
10,43,2.28766,8.72324e-05
11,43,2.32319,8.68817e-05
12,43,2.35918,8.6507e-05
13,43,2.39562,8.61079e-05
14,43,2.4325,8.5684e-05
15,43,2.46982,8.52347e-05
16,43,2.50757,8.47594e-05
17,43,2.54574,8.42572e-05
18,43,2.58432,8.37273e-05
19,43,2.62332,8.31688e-05
20,43,2.66271,8.25806e-05
21,43,2.70249,8.19614e-05
22,43,2.74265,8.131e-05
23,43,2.78318,8.06251e-05
24,43,2.82406,7.99051e-05
25,43,2.86529,7.91484e-05
26,43,2.90685,7.83533e-05
27,43,2.94873,7.75182e-05
28,43,2.99091,7.6641e-05
29,43,3.03338,7.57198e-05
30,43,3.07613,7.47525e-05
31,43,3.11913,7.3737e-05
32,43,3.16238,7.26709e-05
33,43,3.20585,7.1552e-05
34,43,3.24952,7.03778e-05
35,43,3.29339,6.91459e-05
36,43,3.33742,6.78536e-05
37,43,3.3816,6.64985e-05
38,43,3.42591,6.50778e-05
39,43,3.47033,6.35891e-05
40,43,3.51483,6.20295e-05
41,43,3.55939,6.03966e-05
42,43,3.60399,5.86878e-05
43,43,3.64861,5.69006e-05
44,43,3.69321,5.50326e-05
45,43,3.73779,5.30817e-05
46,43,3.7823,5.10459e-05
47,43,3.82673,4.89232e-05
48,43,3.87105,4.67124e-05
49,43,3.91523,4.44122e-05
50,43,3.95924,4.20218e-05
51,43,4.00306,3.9541e-05
52,43,4.04666,3.69698e-05
53,43,4.09001,3.43092e-05
54,43,4.13308,3.15603e-05
55,43,4.17584,2.87253e-05
56,43,4.21827,2.58067e-05
57,43,4.26032,2.28081e-05
58,43,4.30198,1.97335e-05
59,43,4.34322,1.65877e-05
60,43,4.38399,1.33761e-05
61,43,4.42428,1.01049e-05
62,43,4.46404,6.78046e-06
63,43,4.50326,3.40977e-06
1,44,2.02015,9.22768e-05
2,44,2.05195,9.21464e-05
3,44,2.08424,9.19902e-05
4,44,2.11701,9.18091e-05
5,44,2.15026,9.16037e-05
6,44,2.18399,9.13744e-05
7,44,2.2182,9.11216e-05
8,44,2.25289,9.08456e-05
9,44,2.28805,9.05462e-05
10,44,2.32368,9.02236e-05
11,44,2.35978,8.98775e-05
12,44,2.39634,8.95077e-05
13,44,2.43335,8.91136e-05
14,44,2.47081,8.86948e-05
15,44,2.50871,8.82507e-05
16,44,2.54706,8.77804e-05
17,44,2.58583,8.72831e-05
18,44,2.62502,8.67579e-05
19,44,2.66463,8.62036e-05
20,44,2.70464,8.56192e-05
21,44,2.74505,8.50032e-05
22,44,2.78584,8.43543e-05
23,44,2.82701,8.3671e-05
24,44,2.86854,8.29517e-05
25,44,2.91041,8.21946e-05
26,44,2.95263,8.13979e-05
27,44,2.99516,8.05597e-05
28,44,3.03801,7.9678e-05
29,44,3.08115,7.87506e-05
30,44,3.12457,7.77752e-05
31,44,3.16825,7.67495e-05
32,44,3.21218,7.5671e-05
33,44,3.25633,7.45373e-05
34,44,3.3007,7.33456e-05
35,44,3.34525,7.20932e-05
36,44,3.38998,7.07775e-05
37,44,3.43486,6.93954e-05
38,44,3.47986,6.79443e-05
39,44,3.52498,6.6421e-05
40,44,3.57018,6.48229e-05
41,44,3.61544,6.31468e-05
42,44,3.66075,6.139e-05
43,44,3.70606,5.95497e-05
44,44,3.75138,5.76233e-05
45,44,3.79665,5.5608e-05
46,44,3.84187,5.35018e-05
47,44,3.887,5.13023e-05
48,44,3.93201,4.90079e-05
49,44,3.97689,4.66171e-05
50,44,4.02159,4.41288e-05
51,44,4.06611,4.15426e-05
52,44,4.11039,3.88584e-05
53,44,4.15442,3.60769e-05
54,44,4.19817,3.31994e-05
55,44,4.24161,3.0228e-05
56,44,4.2847,2.71656e-05
57,44,4.32742,2.40159e-05
58,44,4.36973,2.07834e-05
59,44,4.41161,1.74734e-05
60,44,4.45303,1.40922e-05
61,44,4.49395,1.06465e-05
62,44,4.53434,7.14391e-06
63,44,4.57418,3.59232e-06
1,45,2.05196,9.52965e-05
2,45,2.08426,9.51658e-05
3,45,2.11706,9.50103e-05
4,45,2.15035,9.48306e-05
5,45,2.18412,9.46275e-05
6,45,2.21839,9.44012e-05
7,45,2.25314,9.41521e-05
8,45,2.28837,9.38803e-05
9,45,2.32409,9.35859e-05
10,45,2.36028,9.32687e-05
11,45,2.39694,9.29285e-05
12,45,2.43407,9.25649e-05
13,45,2.47167,9.21773e-05
14,45,2.50972,9.17652e-05
15,45,2.54822,9.13278e-05
16,45,2.58717,9.08643e-05
17,45,2.62655,9.03737e-05
18,45,2.66636,8.98549e-05
19,45,2.70659,8.93068e-05
20,45,2.74724,8.8728e-05
21,45,2.78828,8.81171e-05
22,45,2.82971,8.74727e-05
23,45,2.87153,8.67931e-05
24,45,2.91371,8.60766e-05
25,45,2.95625,8.53212e-05
26,45,2.99912,8.45251e-05
27,45,3.04233,8.3686e-05
28,45,3.08585,8.2802e-05
29,45,3.12967,8.18705e-05
30,45,3.17378,8.08892e-05
31,45,3.21815,7.98555e-05
32,45,3.26276,7.87669e-05
33,45,3.30761,7.76204e-05
34,45,3.35268,7.64133e-05
35,45,3.39793,7.51427e-05
36,45,3.44336,7.38055e-05
37,45,3.48895,7.23985e-05
38,45,3.53466,7.09187e-05
39,45,3.58049,6.93628e-05
40,45,3.6264,6.77277e-05
41,45,3.67238,6.60099e-05
42,45,3.7184,6.42065e-05
43,45,3.76443,6.23141e-05
44,45,3.81045,6.03299e-05
45,45,3.85644,5.82508e-05
46,45,3.90237,5.60742e-05
47,45,3.94821,5.37975e-05
48,45,3.99393,5.14187e-05
49,45,4.03952,4.89359e-05
50,45,4.08493,4.63477e-05
51,45,4.13014,4.36534e-05
52,45,4.17512,4.08528e-05
53,45,4.21985,3.79463e-05
54,45,4.26428,3.49351e-05
55,45,4.3084,3.18214e-05
56,45,4.35217,2.86082e-05
57,45,4.39556,2.52996e-05
58,45,4.43854,2.19004e-05
59,45,4.48109,1.84167e-05
60,45,4.52315,1.48553e-05
61,45,4.56472,1.12241e-05
62,45,4.60575,7.53167e-06
63,45,4.64621,3.78711e-06
1,46,2.08428,9.83631e-05
2,46,2.11709,9.82324e-05
3,46,2.1504,9.80779e-05
4,46,2.18421,9.79002e-05
5,46,2.21852,9.76999e-05
6,46,2.25332,9.74774e-05
7,46,2.28862,9.72329e-05
8,46,2.32441,9.69666e-05
9,46,2.36069,9.66782e-05
10,46,2.39745,9.63678e-05
11,46,2.43469,9.60348e-05
12,46,2.47241,9.56788e-05
13,46,2.51059,9.52993e-05
14,46,2.54924,9.48955e-05
15,46,2.58835,9.44667e-05
16,46,2.62791,9.40117e-05
17,46,2.66792,9.35296e-05
18,46,2.70835,9.30192e-05
19,46,2.74922,9.24792e-05
20,46,2.7905,9.19082e-05
21,46,2.83219,9.13046e-05
22,46,2.87428,9.06668e-05
23,46,2.91675,8.99931e-05
24,46,2.9596,8.92815e-05
25,46,3.0028,8.85301e-05
26,46,3.04636,8.77368e-05
27,46,3.09024,8.68993e-05
28,46,3.13445,8.60152e-05
29,46,3.17896,8.5082e-05
30,46,3.22376,8.40972e-05
31,46,3.26883,8.3058e-05
32,46,3.31415,8.19615e-05
33,46,3.3597,8.08048e-05
34,46,3.40548,7.95847e-05
35,46,3.45145,7.82982e-05
36,46,3.49759,7.69417e-05
37,46,3.54389,7.55121e-05
38,46,3.59033,7.40058e-05
39,46,3.63688,7.24194e-05
40,46,3.68351,7.07491e-05
41,46,3.73021,6.89915e-05
42,46,3.77695,6.7143e-05
43,46,3.82371,6.52e-05
44,46,3.87046,6.3159e-05
45,46,3.91717,6.10169e-05
46,46,3.96382,5.87703e-05
47,46,4.01039,5.64165e-05
48,46,4.05683,5.39527e-05
49,46,4.10313,5.13768e-05
50,46,4.14926,4.8687e-05
51,46,4.19518,4.58822e-05
52,46,4.24087,4.29618e-05
53,46,4.2863,3.99261e-05
54,46,4.33144,3.67761e-05
55,46,4.37625,3.35139e-05
56,46,4.42071,3.01427e-05
57,46,4.46478,2.66668e-05
58,46,4.50844,2.30915e-05
59,46,4.55165,1.94235e-05
60,46,4.59438,1.56706e-05
61,46,4.6366,1.18417e-05
62,46,4.67828,7.94648e-06
63,46,4.71938,3.99556e-06
1,47,2.1171,0.000101476
2,47,2.15043,0.000101346
3,47,2.18426,0.000101192
4,47,2.21861,0.000101017
5,47,2.25346,0.000100821
6,47,2.28881,0.000100603
7,47,2.32466,0.000100364
8,47,2.36102,0.000100104
9,47,2.39786,9.9823e-05
10,47,2.4352,9.95206e-05
11,47,2.47303,9.91964e-05
12,47,2.51134,9.88497e-05
13,47,2.55013,9.848e-05
14,47,2.58939,9.80863e-05
15,47,2.62911,9.76678e-05
16,47,2.6693,9.72233e-05
17,47,2.70993,9.67517e-05
18,47,2.75101,9.62517e-05
19,47,2.79251,9.57219e-05
20,47,2.83445,9.51608e-05
21,47,2.87679,9.45667e-05
22,47,2.91954,9.39378e-05
23,47,2.96268,9.32723e-05
24,47,3.0062,9.25681e-05
25,47,3.05009,9.18232e-05
26,47,3.09433,9.10351e-05
27,47,3.13891,9.02015e-05
28,47,3.18381,8.932e-05
29,47,3.22902,8.83877e-05
30,47,3.27453,8.7402e-05
31,47,3.3203,8.63598e-05
32,47,3.36634,8.52581e-05
33,47,3.41261,8.40937e-05
34,47,3.45911,8.28633e-05
35,47,3.5058,8.15634e-05
36,47,3.55267,8.01904e-05
37,47,3.5997,7.87406e-05
38,47,3.64687,7.72103e-05
39,47,3.69415,7.55956e-05
40,47,3.74152,7.38926e-05
41,47,3.78896,7.20972e-05
42,47,3.83643,7.02056e-05
43,47,3.88393,6.82137e-05
44,47,3.93141,6.61176e-05
45,47,3.97886,6.39135e-05
46,47,4.02625,6.15979e-05
47,47,4.07354,5.91672e-05
48,47,4.12072,5.66183e-05
49,47,4.16775,5.39486e-05
50,47,4.2146,5.11558e-05
51,47,4.26125,4.82383e-05
52,47,4.30766,4.5195e-05
53,47,4.3538,4.2026e-05
54,47,4.39965,3.8732e-05
55,47,4.44517,3.53151e-05
56,47,4.49033,3.17783e-05
57,47,4.5351,2.81262e-05
58,47,4.57944,2.43647e-05
59,47,4.62333,2.05011e-05
60,47,4.66673,1.65442e-05
61,47,4.70962,1.25039e-05
62,47,4.75195,8.39152e-06
63,47,4.7937,4.21927e-06
1,48,2.15044,0.000104634
2,48,2.18429,0.000104504
3,48,2.21866,0.000104353
4,48,2.25355,0.000104181
5,48,2.28894,0.000103989
6,48,2.32485,0.000103776
7,48,2.36127,0.000103544
8,48,2.3982,0.000103292
9,48,2.43563,0.00010302
10,48,2.47356,0.000102727
11,48,2.51198,0.000102413
12,48,2.55089,0.000102078
13,48,2.59029,0.000101719
14,48,2.63017,0.000101338
15,48,2.67052,0.000100932
16,48,2.71133,0.0001005
17,48,2.75261,0.000100041
18,48,2.79433,9.95533e-05
19,48,2.83649,9.90359e-05
20,48,2.87909,9.8487e-05
21,48,2.9221,9.79048e-05
22,48,2.96552,9.72872e-05
23,48,3.00934,9.66324e-05
24,48,3.05355,9.59381e-05
25,48,3.09813,9.52021e-05
26,48,3.14306,9.44219e-05
27,48,3.18834,9.3595e-05
28,48,3.23395,9.27186e-05
29,48,3.27987,9.179e-05
30,48,3.32609,9.08061e-05
31,48,3.37259,8.97638e-05
32,48,3.41935,8.86598e-05
33,48,3.46636,8.74906e-05
34,48,3.51358,8.62526e-05
35,48,3.56101,8.49422e-05
36,48,3.60862,8.35555e-05
37,48,3.65639,8.20885e-05
38,48,3.7043,8.05369e-05
39,48,3.75233,7.88967e-05
40,48,3.80044,7.71635e-05
41,48,3.84863,7.5333e-05
42,48,3.89685,7.34006e-05
43,48,3.94509,7.1362e-05
44,48,3.99333,6.92127e-05
45,48,4.04152,6.69484e-05
46,48,4.08965,6.45649e-05
47,48,4.13769,6.20582e-05
48,48,4.18561,5.94247e-05
49,48,4.23338,5.66609e-05
50,48,4.28097,5.3764e-05
51,48,4.32835,5.07319e-05
52,48,4.37549,4.7563e-05
53,48,4.42237,4.42568e-05
54,48,4.46893,4.08138e-05
55,48,4.51517,3.72356e-05
56,48,4.56104,3.35254e-05
57,48,4.60651,2.96879e-05
58,48,4.65156,2.57293e-05
59,48,4.69614,2.16577e-05
60,48,4.74023,1.74829e-05
61,48,4.78378,1.32162e-05
62,48,4.82678,8.87057e-06
63,48,4.86919,4.46018e-06
1,49,2.18431,0.000107837
2,49,2.21869,0.000107708
3,49,2.2536,0.000107559
4,49,2.28904,0.000107391
5,49,2.32499,0.000107204
6,49,2.36147,0.000106998
7,49,2.39846,0.000106774
8,49,2.43597,0.000106531
9,49,2.47398,0.000106269
10,49,2.51251,0.000105987
11,49,2.55154,0.000105685
12,49,2.59106,0.000105363
13,49,2.63108,0.000105018
14,49,2.67159,0.00010465
15,49,2.71258,0.000104258
16,49,2.75403,0.000103841
17,49,2.79596,0.000103397
18,49,2.83834,0.000102925
19,49,2.88116,0.000102422
20,49,2.92443,0.000101888
21,49,2.96812,0.00010132
22,49,3.01222,0.000100716
23,49,3.05673,0.000100075
24,49,3.10164,9.9393e-05
25,49,3.14692,9.86687e-05
26,49,3.19256,9.78991e-05
27,49,3.23855,9.70817e-05
28,49,3.28488,9.62135e-05
29,49,3.33153,9.52914e-05
30,49,3.37847,9.43124e-05
31,49,3.42571,9.32729e-05
32,49,3.4732,9.21696e-05
33,49,3.52095,9.09987e-05
34,49,3.56891,8.97564e-05
35,49,3.61709,8.84387e-05
36,49,3.66545,8.70414e-05
37,49,3.71397,8.55602e-05
38,49,3.76264,8.39906e-05
39,49,3.81142,8.2328e-05
40,49,3.86029,8.05677e-05
41,49,3.90924,7.87048e-05
42,49,3.95822,7.67345e-05
43,49,4.00722,7.46518e-05
44,49,4.05621,7.24518e-05
45,49,4.10517,7.01294e-05
46,49,4.15406,6.768e-05
47,49,4.20285,6.50987e-05
48,49,4.25153,6.23814e-05
49,49,4.30005,5.95238e-05
50,49,4.34839,5.65224e-05
51,49,4.39652,5.33744e-05
52,49,4.4444,5.00775e-05
53,49,4.49201,4.66306e-05
54,49,4.53931,4.30336e-05
55,49,4.58628,3.92878e-05
56,49,4.63287,3.53961e-05
57,49,4.67906,3.13633e-05
58,49,4.72481,2.7196e-05
59,49,4.77009,2.29029e-05
60,49,4.81487,1.84949e-05
61,49,4.85912,1.39851e-05
62,49,4.90279,9.38813e-06
63,49,4.94587,4.72059e-06
1,50,2.21871,0.000111083
2,50,2.25363,0.000110955
3,50,2.28909,0.000110809
4,50,2.32509,0.000110645
5,50,2.36161,0.000110464
6,50,2.39866,0.000110267
7,50,2.43623,0.000110052
8,50,2.47433,0.000109819
9,50,2.51295,0.000109569
10,50,2.55208,0.0001093
11,50,2.59172,0.000109012
12,50,2.63187,0.000108704
13,50,2.67252,0.000108375
14,50,2.71366,0.000108024
15,50,2.75529,0.000107648
16,50,2.79741,0.000107248
17,50,2.83999,0.000106821
18,50,2.88304,0.000106366
19,50,2.92654,0.000105881
20,50,2.97048,0.000105364
21,50,3.01486,0.000104813
22,50,3.05966,0.000104226
23,50,3.10487,0.000103601
24,50,3.15048,0.000102934
25,50,3.19647,0.000102225
26,50,3.24284,0.000101469
27,50,3.28956,0.000100664
28,50,3.33661,9.98068e-05
29,50,3.38399,9.88944e-05
30,50,3.43168,9.79234e-05
31,50,3.47966,9.68901e-05
32,50,3.5279,9.57907e-05
33,50,3.57639,9.46215e-05
34,50,3.62512,9.33782e-05
35,50,3.67405,9.20566e-05
36,50,3.72318,9.06522e-05
37,50,3.77246,8.91603e-05
38,50,3.82189,8.75761e-05
39,50,3.87144,8.58946e-05
40,50,3.92109,8.41107e-05
41,50,3.9708,8.2219e-05
42,50,4.02056,8.02141e-05
43,50,4.07033,7.80905e-05
44,50,4.12009,7.58427e-05
45,50,4.16982,7.3465e-05
46,50,4.21948,7.0952e-05
47,50,4.26904,6.82983e-05
48,50,4.31848,6.54987e-05
49,50,4.36777,6.25483e-05
50,50,4.41687,5.94427e-05
51,50,4.46575,5.6178e-05
52,50,4.51439,5.27514e-05
53,50,4.56275,4.91606e-05
54,50,4.6108,4.54051e-05
55,50,4.6585,4.14854e-05
56,50,4.70583,3.74041e-05
57,50,4.75274,3.31657e-05
58,50,4.79922,2.87773e-05
59,50,4.84521,2.4248e-05
60,50,4.8907,1.95902e-05
61,50,4.93564,1.48183e-05
62,50,4.98,9.94961e-06
63,50,5.02375,5.00328e-06
1,51,2.25365,0.000114371
2,51,2.28913,0.000114244
3,51,2.32514,0.000114102
4,51,2.3617,0.000113943
5,51,2.3988,0.00011377
6,51,2.43643,0.000113581
7,51,2.4746,0.000113377
8,51,2.5133,0.000113157
9,51,2.55252,0.00011292
10,51,2.59227,0.000112666
11,51,2.63254,0.000112394
12,51,2.67332,0.000112103
13,51,2.71461,0.000111791
14,51,2.7564,0.000111458
15,51,2.79869,0.000111102
16,51,2.84146,0.000110721
17,51,2.88471,0.000110314
18,51,2.92844,0.000109879
19,51,2.97262,0.000109414
20,51,3.01726,0.000108917
21,51,3.06234,0.000108386
22,51,3.10785,0.000107818
23,51,3.15377,0.000107212
24,51,3.2001,0.000106564
25,51,3.24681,0.000105872
26,51,3.29391,0.000105132
27,51,3.34136,0.000104343
28,51,3.38916,0.000103501
29,51,3.43729,0.000102601
30,51,3.48572,0.000101642
31,51,3.53445,0.000100618
32,51,3.58346,9.95262e-05
33,51,3.63272,9.83622e-05
34,51,3.68221,9.71216e-05
35,51,3.73191,9.57999e-05
36,51,3.78181,9.43921e-05
37,51,3.83187,9.28934e-05
38,51,3.88208,9.12985e-05
39,51,3.93241,8.9602e-05
40,51,3.98284,8.77983e-05
41,51,4.03333,8.58816e-05
42,51,4.08387,8.3846e-05
43,51,4.13443,8.16853e-05
44,51,4.18498,7.93933e-05
45,51,4.23548,7.69638e-05
46,51,4.28593,7.43905e-05
47,51,4.33627,7.16671e-05
48,51,4.38649,6.87876e-05
49,51,4.43655,6.57461e-05
50,51,4.48643,6.25373e-05
51,51,4.53608,5.91561e-05
52,51,4.58548,5.55987e-05
53,51,4.6346,5.18618e-05
54,51,4.68341,4.79437e-05
55,51,4.73186,4.38442e-05
56,51,4.77993,3.95652e-05
57,51,4.82759,3.51108e-05
58,51,4.87479,3.0488e-05
59,51,4.92151,2.57068e-05
60,51,4.96772,2.07804e-05
61,51,5.01337,1.57254e-05
62,51,5.05843,1.05616e-05
63,51,5.10287,5.31164e-06
1,52,2.28914,0.000117699
2,52,2.32518,0.000117574
3,52,2.36176,0.000117436
4,52,2.39889,0.000117284
5,52,2.43658,0.000117119
6,52,2.4748,0.00011694
7,52,2.51357,0.000116748
8,52,2.55288,0.000116542
9,52,2.59272,0.000116321
10,52,2.63309,0.000116084
11,52,2.67399,0.00011583
12,52,2.71542,0.000115558
13,52,2.75736,0.000115266
14,52,2.79981,0.000114954
15,52,2.84276,0.000114619
16,52,2.88621,0.000114261
17,52,2.93014,0.000113876
18,52,2.97456,0.000113464
19,52,3.01944,0.000113021
20,52,3.06478,0.000112547
21,52,3.11057,0.000112039
22,52,3.15679,0.000111493
23,52,3.20344,0.000110909
24,52,3.25049,0.000110282
25,52,3.29795,0.000109611
26,52,3.34578,0.000108892
27,52,3.39398,0.000108122
28,52,3.44253,0.000107297
29,52,3.49142,0.000106414
30,52,3.54062,0.00010547
31,52,3.59012,0.000104459
32,52,3.63989,0.000103379
33,52,3.68993,0.000102224
34,52,3.7402,0.00010099
35,52,3.79069,9.96723e-05
36,52,3.84137,9.82653e-05
37,52,3.89222,9.6764e-05
38,52,3.94322,9.51627e-05
39,52,3.99434,9.34555e-05
40,52,4.04556,9.16364e-05
41,52,4.09685,8.96992e-05
42,52,4.14819,8.76372e-05
43,52,4.19954,8.54437e-05
44,52,4.25088,8.31119e-05
45,52,4.30219,8.06347e-05
46,52,4.35342,7.8005e-05
47,52,4.40456,7.52157e-05
48,52,4.45557,7.22596e-05
49,52,4.50642,6.91298e-05
50,52,4.55708,6.58197e-05
51,52,4.60752,6.23233e-05
52,52,4.6577,5.8635e-05
53,52,4.70759,5.47505e-05
54,52,4.75716,5.06667e-05
55,52,4.80638,4.63821e-05
56,52,4.85521,4.18976e-05
57,52,4.90361,3.72166e-05
58,52,4.95156,3.23457e-05
59,52,4.99902,2.72953e-05
60,52,5.04595,2.20798e-05
61,52,5.09232,1.67178e-05
62,52,5.13809,1.12323e-05
63,52,5.18323,5.64992e-06
1,53,2.32519,0.000121065
2,53,2.36179,0.000120943
3,53,2.39895,0.000120809
4,53,2.43667,0.000120665
5,53,2.47495,0.000120509
6,53,2.51377,0.000120343
7,53,2.55315,0.000120165
8,53,2.59308,0.000119975
9,53,2.63355,0.000119771
10,53,2.67456,0.000119553
11,53,2.71611,0.000119319
12,53,2.75818,0.000119069
13,53,2.80078,0.0001188
14,53,2.8439,0.000118511
15,53,2.88753,0.000118201
16,53,2.93166,0.000117867
17,53,2.97629,0.000117507
18,53,3.0214,0.00011712
19,53,3.06699,0.000116704
20,53,3.11304,0.000116255
21,53,3.15955,0.000115772
22,53,3.2065,0.000115253
23,53,3.25388,0.000114694
24,53,3.30168,0.000114092
25,53,3.34988,0.000113445
26,53,3.39847,0.000112749
27,53,3.44743,0.000112002
28,53,3.49675,0.000111199
29,53,3.5464,0.000110336
30,53,3.59638,0.00010941
31,53,3.64665,0.000108417
32,53,3.69721,0.000107352
33,53,3.74804,0.00010621
34,53,3.7991,0.000104987
35,53,3.85038,0.000103678
36,53,3.90186,0.000102276
37,53,3.95352,0.000100777
38,53,4.00532,9.91735e-05
39,53,4.05724,9.74604e-05
40,53,4.10927,9.56309e-05
41,53,4.16137,9.36779e-05
42,53,4.21351,9.15946e-05
43,53,4.26568,8.93734e-05
44,53,4.31783,8.70068e-05
45,53,4.36994,8.44869e-05
46,53,4.42198,8.18057e-05
47,53,4.47392,7.8955e-05
48,53,4.52574,7.59267e-05
49,53,4.57739,7.27125e-05
50,53,4.62885,6.93045e-05
51,53,4.68008,6.56951e-05
52,53,4.73105,6.18773e-05
53,53,4.78173,5.7845e-05
54,53,4.83208,5.35935e-05
55,53,4.88207,4.91195e-05
56,53,4.93167,4.44225e-05
57,53,4.98084,3.95045e-05
58,53,5.02954,3.43713e-05
59,53,5.07774,2.90334e-05
60,53,5.12541,2.3506e-05
61,53,5.17251,1.781e-05
62,53,5.219,1.1972e-05
63,53,5.26485,6.02344e-06
1,54,2.36181,0.000124467
2,54,2.39899,0.000124348
3,54,2.43673,0.00012422
4,54,2.47505,0.000124084
5,54,2.51392,0.00012394
6,54,2.55336,0.000123787
7,54,2.59336,0.000123625
8,54,2.63392,0.000123453
9,54,2.67502,0.000123269
10,54,2.71668,0.000123073
11,54,2.75888,0.000122862
12,54,2.80162,0.000122636
13,54,2.84489,0.000122392
14,54,2.88869,0.000122129
15,54,2.933,0.000121846
16,54,2.97783,0.000121539
17,54,3.02316,0.000121208
18,54,3.06898,0.00012085
19,54,3.11529,0.000120462
20,54,3.16207,0.000120042
21,54,3.20931,0.000119589
22,54,3.257,0.000119098
23,54,3.30513,0.000118567
24,54,3.35368,0.000117994
25,54,3.40264,0.000117374
26,54,3.45199,0.000116706
27,54,3.50172,0.000115984
28,54,3.55181,0.000115207
29,54,3.60225,0.000114368
30,54,3.65301,0.000113465
31,54,3.70408,0.000112494
32,54,3.75544,0.000111448
33,54,3.80706,0.000110324
34,54,3.85893,0.000109116
35,54,3.91102,0.00010782
36,54,3.96331,0.000106428
37,54,4.01578,0.000104935
38,54,4.06839,0.000103336
39,54,4.12114,0.000101622
40,54,4.17398,9.97873e-05
41,54,4.2269,9.78242e-05
42,54,4.27987,9.57252e-05
43,54,4.33285,9.3482e-05
44,54,4.38583,9.10864e-05
45,54,4.43876,8.85296e-05
46,54,4.49162,8.58027e-05
47,54,4.54438,8.28964e-05
48,54,4.59701,7.98013e-05
49,54,4.64947,7.65079e-05
50,54,4.70174,7.30067e-05
51,54,4.75378,6.92883e-05
52,54,4.80555,6.53439e-05
53,54,4.85703,6.11654e-05
54,54,4.90818,5.67458e-05
55,54,4.95896,5.20797e-05
56,54,5.00933,4.71642e-05
57,54,5.05928,4.19995e-05
58,54,5.10875,3.659e-05
59,54,5.15771,3.09451e-05
60,54,5.20613,2.50809e-05
61,54,5.25396,1.90202e-05
62,54,5.30119,1.27937e-05
63,54,5.34776,6.4391e-06
1,55,2.399,0.000127903
2,55,2.43677,0.000127787
3,55,2.47511,0.000127666
4,55,2.51402,0.00012754
5,55,2.55351,0.000127409
6,55,2.59357,0.000127272
7,55,2.6342,0.000127128
8,55,2.6754,0.000126976
9,55,2.71715,0.000126814
10,55,2.75946,0.000126642
11,55,2.80233,0.000126457
12,55,2.84574,0.000126257
13,55,2.88969,0.000126042
14,55,2.93418,0.000125808
15,55,2.97919,0.000125555
16,55,3.02473,0.000125279
17,55,3.07077,0.000124979
18,55,3.11731,0.000124652
19,55,3.16435,0.000124296
20,55,3.21187,0.000123909
21,55,3.25985,0.000123487
22,55,3.30829,0.000123029
23,55,3.35718,0.00012253
24,55,3.40649,0.000121989
25,55,3.45622,0.000121401
26,55,3.50635,0.000120763
27,55,3.55687,0.000120072
28,55,3.60775,0.000119323
29,55,3.65898,0.000118513
30,55,3.71054,0.000117637
31,55,3.76242,0.000116691
32,55,3.81458,0.00011567
33,55,3.86702,0.000114568
34,55,3.9197,0.000113381
35,55,3.97261,0.000112102
36,55,4.02573,0.000110725
37,55,4.07902,0.000109245
38,55,4.13247,0.000107654
39,55,4.18604,0.000105945
40,55,4.23972,0.000104111
41,55,4.29347,0.000102144
42,55,4.34727,0.000100036
43,55,4.40109,9.7777e-05
44,55,4.45489,9.5359e-05
45,55,4.50866,9.27721e-05
46,55,4.56236,9.00064e-05
47,55,4.61595,8.70514e-05
48,55,4.66941,8.38965e-05
49,55,4.7227,8.05305e-05
50,55,4.77579,7.69424e-05
51,55,4.82864,7.31208e-05
52,55,4.88123,6.90548e-05
53,55,4.93352,6.47336e-05
54,55,4.98547,6.01477e-05
55,55,5.03705,5.52888e-05
56,55,5.08822,5.01509e-05
57,55,5.13895,4.47313e-05
58,55,5.1892,3.90318e-05
59,55,5.23893,3.30602e-05
60,55,5.28811,2.68319e-05
61,55,5.3367,2.03717e-05
62,55,5.38467,1.37146e-05
63,55,5.43197,6.90601e-06
1,56,2.43678,0.000131369
2,56,2.47514,0.000131257
3,56,2.51409,0.000131144
4,56,2.55362,0.00013103
5,56,2.59373,0.000130914
6,56,2.63442,0.000130795
7,56,2.67569,0.000130671
8,56,2.71753,0.000130542
9,56,2.75994,0.000130405
10,56,2.80292,0.00013026
11,56,2.84646,0.000130103
12,56,2.89055,0.000129934
13,56,2.9352,0.000129749
14,56,2.98039,0.000129548
15,56,3.02611,0.000129327
16,56,3.07236,0.000129085
17,56,3.11913,0.00012882
18,56,3.16641,0.000128528
19,56,3.21418,0.000128207
20,56,3.26245,0.000127856
21,56,3.31119,0.00012747
22,56,3.36039,0.000127047
23,56,3.41005,0.000126585
24,56,3.46014,0.000126078
25,56,3.51065,0.000125526
26,56,3.56157,0.000124923
27,56,3.61288,0.000124266
28,56,3.66457,0.00012355
29,56,3.7166,0.000122773
30,56,3.76898,0.000121929
31,56,3.82167,0.000121013
32,56,3.87465,0.00012002
33,56,3.92792,0.000118945
34,56,3.98143,0.000117783
35,56,4.03517,0.000116527
36,56,4.08912,0.000115171
37,56,4.14326,0.000113709
38,56,4.19755,0.000112133
39,56,4.25196,0.000110435
40,56,4.30649,0.000108608
41,56,4.36109,0.000106644
42,56,4.41573,0.000104533
43,56,4.4704,0.000102266
44,56,4.52505,9.98329e-05
45,56,4.57967,9.72237e-05
46,56,4.63421,9.44271e-05
47,56,4.68864,9.14316e-05
48,56,4.74294,8.82251e-05
49,56,4.79707,8.4795e-05
50,56,4.851,8.11282e-05
51,56,4.90469,7.72113e-05
52,56,4.9581,7.30309e-05
53,56,5.01121,6.85734e-05
54,56,5.06398,6.38258e-05
55,56,5.11637,5.87764e-05
56,56,5.16835,5.34151e-05
57,56,5.21988,4.77349e-05
58,56,5.27092,4.17336e-05
59,56,5.32143,3.54156e-05
60,56,5.37139,2.87943e-05
61,56,5.42075,2.18952e-05
62,56,5.46947,1.47577e-05
63,56,5.51752,7.43655e-06
1,57,2.47516,0.000134861
2,57,2.51412,0.000134755
3,57,2.55368,0.000134651
4,57,2.59383,0.000134551
5,57,2.63457,0.000134452
6,57,2.67591,0.000134353
7,57,2.71782,0.000134253
8,57,2.76032,0.00013415
9,57,2.80341,0.000134041
10,57,2.84706,0.000133925
11,57,2.89129,0.0001338
12,57,2.93608,0.000133664
13,57,2.98142,0.000133514
14,57,3.02732,0.000133348
15,57,3.07377,0.000133164
16,57,3.12074,0.000132959
17,57,3.16825,0.000132731
18,57,3.21627,0.000132477
19,57,3.2648,0.000132196
20,57,3.31383,0.000131883
21,57,3.36333,0.000131537
22,57,3.41331,0.000131154
23,57,3.46375,0.00013073
24,57,3.51463,0.000130264
25,57,3.56594,0.00012975
26,57,3.61766,0.000129186
27,57,3.66978,0.000128567
28,57,3.72228,0.00012789
29,57,3.77513,0.000127149
30,57,3.82833,0.000126341
31,57,3.88185,0.00012546
32,57,3.93567,0.000124501
33,57,3.98977,0.000123459
34,57,4.04413,0.000122327
35,57,4.09872,0.0001211
36,57,4.15352,0.00011977
37,57,4.20851,0.000118332
38,57,4.26365,0.000116776
39,57,4.31893,0.000115096
40,57,4.37431,0.000113284
41,57,4.42977,0.000111329
42,57,4.48527,0.000109223
43,57,4.5408,0.000106955
44,57,4.59631,0.000104516
45,57,4.65179,0.000101893
46,57,4.70719,9.90748e-05
47,57,4.76248,9.60483e-05
48,57,4.81763,9.28001e-05
49,57,4.87262,8.9316e-05
50,57,4.92739,8.55809e-05
51,57,4.98193,8.15791e-05
52,57,5.03619,7.72944e-05
53,57,5.09013,7.271e-05
54,57,5.14373,6.78092e-05
55,57,5.19695,6.25755e-05
56,57,5.24974,5.69937e-05
57,57,5.30208,5.10513e-05
58,57,5.35393,4.47398e-05
59,57,5.40524,3.80576e-05
60,57,5.45598,3.10137e-05
61,57,5.50611,2.36317e-05
62,57,5.5556,1.59546e-05
63,57,5.6044,8.04816e-06
1,58,2.51414,0.000138376
2,58,2.55371,0.000138276
3,58,2.5939,0.000138184
4,58,2.63468,0.000138099
5,58,2.67606,0.00013802
6,58,2.71805,0.000137945
7,58,2.76062,0.000137871
8,58,2.8038,0.000137797
9,58,2.84755,0.00013772
10,58,2.8919,0.000137638
11,58,2.93682,0.000137548
12,58,2.98231,0.000137447
13,58,3.02838,0.000137335
14,58,3.075,0.000137208
15,58,3.12217,0.000137063
16,58,3.16989,0.000136899
17,58,3.21814,0.000136713
18,58,3.26692,0.000136501
19,58,3.31622,0.000136262
20,58,3.36601,0.000135992
21,58,3.4163,0.000135689
22,58,3.46707,0.000135349
23,58,3.5183,0.000134969
24,58,3.56998,0.000134546
25,58,3.6221,0.000134075
26,58,3.67463,0.000133554
27,58,3.72757,0.000132978
28,58,3.7809,0.000132343
29,58,3.83459,0.000131644
30,58,3.88862,0.000130876
31,58,3.94299,0.000130035
32,58,3.99765,0.000129115
33,58,4.05261,0.00012811
34,58,4.10782,0.000127014
35,58,4.16327,0.000125822
36,58,4.21893,0.000124525
37,58,4.27478,0.000123116
38,58,4.3308,0.000121588
39,58,4.38694,0.000119933
40,58,4.4432,0.000118142
41,58,4.49953,0.000116205
42,58,4.55591,0.000114112
43,58,4.61231,0.000111853
44,58,4.6687,0.000109416
45,58,4.72505,0.000106789
46,58,4.78132,0.000103959
47,58,4.83748,0.000100913
48,58,4.8935,9.76343e-05
49,58,4.94935,9.41081e-05
50,58,5.00499,9.03173e-05
51,58,5.06038,8.62437e-05
52,58,5.1155,8.18681e-05
53,58,5.17029,7.71702e-05
54,58,5.22474,7.21287e-05
55,58,5.27879,6.67221e-05
56,58,5.33242,6.09287e-05
57,58,5.38558,5.47284e-05
58,58,5.43824,4.8104e-05
59,58,5.49036,4.10445e-05
60,58,5.5419,3.35499e-05
61,58,5.59282,2.56376e-05
62,58,5.64309,1.73507e-05
63,58,5.69266,8.76658e-06
1,59,2.55373,0.000141909
2,59,2.59393,0.000141817
3,59,2.63475,0.000141738
4,59,2.67617,0.000141672
5,59,2.71821,0.000141617
6,59,2.76085,0.000141568
7,59,2.8041,0.000141525
8,59,2.84795,0.000141483
9,59,2.8924,0.000141441
10,59,2.93744,0.000141395
11,59,2.98307,0.000141344
12,59,3.02928,0.000141284
13,59,3.07607,0.000141212
14,59,3.12342,0.000141128
15,59,3.17134,0.000141027
16,59,3.21981,0.000140907
17,59,3.26882,0.000140765
18,59,3.31837,0.000140599
19,59,3.36844,0.000140406
20,59,3.41902,0.000140183
21,59,3.4701,0.000139926
22,59,3.52167,0.000139633
23,59,3.57371,0.000139301
24,59,3.6262,0.000138925
25,59,3.67914,0.000138502
26,59,3.7325,0.000138028
27,59,3.78628,0.000137499
28,59,3.84044,0.00013691
29,59,3.89498,0.000136258
30,59,3.94986,0.000135536
31,59,4.00508,0.00013474
32,59,4.06061,0.000133864
33,59,4.11643,0.000132902
34,59,4.17251,0.000131848
35,59,4.22883,0.000130696
36,59,4.28537,0.000129438
37,59,4.3421,0.000128066
38,59,4.399,0.000126573
39,59,4.45603,0.00012495
40,59,4.51317,0.000123188
41,59,4.57039,0.000121276
42,59,4.62766,0.000119206
43,59,4.68495,0.000116964
44,59,4.74222,0.00011454
45,59,4.79946,0.00011192
46,59,4.85662,0.00010909
47,59,4.91366,0.000106035
48,59,4.97057,0.00010274
49,59,5.0273,9.91856e-05
50,59,5.08381,9.53541e-05
51,59,5.14008,9.12246e-05
52,59,5.19606,8.67748e-05
53,59,5.25172,8.19809e-05
54,59,5.30702,7.68168e-05
55,59,5.36192,7.1255e-05
56,59,5.4164,6.52663e-05
57,59,5.47039,5.8821e-05
58,59,5.52388,5.18904e-05
59,59,5.57682,4.44494e-05
60,59,5.62917,3.64824e-05
61,59,5.6809,2.7992e-05
62,59,5.73196,1.90133e-05
63,59,5.78231,9.63203e-06
1,60,2.59395,0.000145453
2,60,2.63478,0.000145371
3,60,2.67624,0.000145309
4,60,2.71832,0.000145266
5,60,2.76101,0.000145237
6,60,2.80433,0.00014522
7,60,2.84826,0.00014521
8,60,2.8928,0.000145205
9,60,2.93795,0.000145202
10,60,2.9837,0.000145197
11,60,3.03005,0.000145188
12,60,3.07699,0.000145172
13,60,3.12451,0.000145146
14,60,3.17261,0.000145107
15,60,3.22128,0.000145053
16,60,3.27052,0.000144981
17,60,3.3203,0.000144888
18,60,3.37063,0.000144771
19,60,3.42149,0.000144628
20,60,3.47287,0.000144455
21,60,3.52475,0.00014425
22,60,3.57713,0.000144008
23,60,3.62999,0.000143727
24,60,3.68331,0.000143403
25,60,3.73708,0.000143031
26,60,3.79128,0.000142609
27,60,3.8459,0.000142132
28,60,3.90092,0.000141594
29,60,3.95631,0.000140993
30,60,4.01207,0.000140322
31,60,4.06816,0.000139576
32,60,4.12456,0.00013875
33,60,4.18126,0.000137837
34,60,4.23822,0.000136831
35,60,4.29543,0.000135725
36,60,4.35286,0.000134512
37,60,4.41049,0.000133184
38,60,4.46828,0.000131733
39,60,4.5262,0.00013015
40,60,4.58424,0.000128425
41,60,4.64236,0.000126548
42,60,4.70054,0.000124509
43,60,4.75873,0.000122295
44,60,4.81691,0.000119894
45,60,4.87504,0.000117292
46,60,4.9331,0.000114475
47,60,4.99105,0.000111425
48,60,5.04885,0.000108127
49,60,5.10647,0.000104561
50,60,5.16387,0.000100706
51,60,5.22103,9.65399e-05
52,60,5.27789,9.20367e-05
53,60,5.33442,8.71689e-05
54,60,5.3906,8.19061e-05
55,60,5.44637,7.62142e-05
56,60,5.5017,7.00559e-05
57,60,5.55654,6.33904e-05
58,60,5.61087,5.61742e-05
59,60,5.66465,4.83629e-05
60,60,5.71782,3.99162e-05
61,60,5.77036,3.08082e-05
62,60,5.82222,2.10474e-05
63,60,5.87337,1.07122e-05
1,61,2.6348,0.000149001
2,61,2.67627,0.000148932
3,61,2.71838,0.000148891
4,61,2.76113,0.000148875
5,61,2.8045,0.000148879
6,61,2.84849,0.000148897
7,61,2.89311,0.000148926
8,61,2.93836,0.000148963
9,61,2.98422,0.000149002
10,61,3.03069,0.000149043
11,61,3.07776,0.00014908
12,61,3.12544,0.000149111
13,61,3.17372,0.000149134
14,61,3.22258,0.000149146
15,61,3.27201,0.000149142
16,61,3.32202,0.000149122
17,61,3.37259,0.000149082
18,61,3.42371,0.000149018
19,61,3.47537,0.000148929
20,61,3.52756,0.000148811
21,61,3.58026,0.00014866
22,61,3.63346,0.000148473
23,61,3.68715,0.000148248
24,61,3.74131,0.000147979
25,61,3.79593,0.000147664
26,61,3.85099,0.000147298
27,61,3.90647,0.000146877
28,61,3.96235,0.000146396
29,61,4.01862,0.000145851
30,61,4.07525,0.000145235
31,61,4.13222,0.000144545
32,61,4.18951,0.000143774
33,61,4.2471,0.000142915
34,61,4.30497,0.000141963
35,61,4.36308,0.000140911
36,61,4.42141,0.00013975
37,61,4.47994,0.000138473
38,61,4.53864,0.000137071
39,61,4.59749,0.000135536
40,61,4.65644,0.000133857
41,61,4.71547,0.000132024
42,61,4.77456,0.000130026
43,61,4.83367,0.00012785
44,61,4.89277,0.000125484
45,61,4.95182,0.000122912
46,61,5.01079,0.000120121
47,61,5.06965,0.000117092
48,61,5.12836,0.000113808
49,61,5.18689,0.000110247
50,61,5.2452,0.000106388
51,61,5.30325,0.000102207
52,61,5.36101,9.7674e-05
53,61,5.41843,9.27594e-05
54,61,5.47549,8.74279e-05
55,61,5.53214,8.16393e-05
56,61,5.58834,7.53481e-05
57,61,5.64405,6.85016e-05
58,61,5.69924,6.10398e-05
59,61,5.75386,5.28941e-05
60,61,5.80787,4.39892e-05
61,61,5.86123,3.42504e-05
62,61,5.91391,2.3624e-05
63,61,5.96586,1.21329e-05
1,62,2.67629,0.000152544
2,62,2.71842,0.000152493
3,62,2.76119,0.000152479
4,62,2.80461,0.000152497
5,62,2.84866,0.000152538
6,62,2.89335,0.000152598
7,62,2.93868,0.000152671
8,62,2.98463,0.000152753
9,62,3.03121,0.000152841
10,62,3.07841,0.00015293
11,62,3.12623,0.000153018
12,62,3.17466,0.000153102
13,62,3.2237,0.000153178
14,62,3.27333,0.000153243
15,62,3.32354,0.000153295
16,62,3.37434,0.00015333
17,62,3.4257,0.000153346
18,62,3.47763,0.00015334
19,62,3.5301,0.000153309
20,62,3.58311,0.000153249
21,62,3.63664,0.000153157
22,62,3.69068,0.00015303
23,62,3.74522,0.000152864
24,62,3.80023,0.000152656
25,62,3.85571,0.000152401
26,62,3.91164,0.000152096
27,62,3.96799,0.000151736
28,62,4.02475,0.000151316
29,62,4.08191,0.000150832
30,62,4.13943,0.000150278
31,62,4.1973,0.000149648
32,62,4.25549,0.000148938
33,62,4.31399,0.00014814
34,62,4.37276,0.000147248
35,62,4.43179,0.000146255
36,62,4.49104,0.000145153
37,62,4.5505,0.000143935
38,62,4.61012,0.00014259
39,62,4.66989,0.000141111
40,62,4.72977,0.000139487
41,62,4.78974,0.000137707
42,62,4.84975,0.00013576
43,62,4.90979,0.000133634
44,62,4.96982,0.000131314
45,62,5.0298,0.000128786
46,62,5.0897,0.000126035
47,62,5.14949,0.000123042
48,62,5.20912,0.000119788
49,62,5.26857,0.000116253
50,62,5.3278,0.000112412
51,62,5.38677,0.000108239
52,62,5.44544,0.000103704
53,62,5.50377,9.87744e-05
54,62,5.56172,9.34102e-05
55,62,5.61926,8.75666e-05
56,62,5.67635,8.11908e-05
57,62,5.73294,7.42194e-05
58,62,5.78899,6.65759e-05
59,62,5.84447,5.81664e-05
60,62,5.89933,4.88737e-05
61,62,5.95354,3.85528e-05
62,62,6.00704,2.7033e-05
63,62,6.05981,1.41584e-05
1,63,2.71844,0.00015607
2,63,2.76123,0.000156045
3,63,2.80468,0.000156067
4,63,2.84878,0.000156126
5,63,2.89352,0.000156212
6,63,2.93892,0.000156319
7,63,2.98495,0.000156442
8,63,3.03163,0.000156576
9,63,3.07895,0.000156716
10,63,3.12689,0.00015686
11,63,3.17547,0.000157003
12,63,3.22466,0.000157143
13,63,3.27446,0.000157276
14,63,3.32487,0.000157399
15,63,3.37588,0.00015751
16,63,3.42748,0.000157605
17,63,3.47965,0.000157682
18,63,3.5324,0.000157737
19,63,3.5857,0.000157767
20,63,3.63954,0.00015777
21,63,3.69391,0.000157741
22,63,3.74881,0.000157677
23,63,3.8042,0.000157576
24,63,3.86008,0.000157432
25,63,3.91643,0.000157243
26,63,3.97324,0.000157003
27,63,4.03048,0.000156708
28,63,4.08814,0.000156355
29,63,4.14619,0.000155937
30,63,4.20462,0.000155449
31,63,4.2634,0.000154887
32,63,4.32251,0.000154243
33,63,4.38193,0.000153512
34,63,4.44163,0.000152686
35,63,4.50158,0.00015176
36,63,4.56177,0.000150724
37,63,4.62216,0.000149571
38,63,4.68272,0.000148292
39,63,4.74343,0.000146877
40,63,4.80426,0.000145317
41,63,4.86517,0.0001436
42,63,4.92613,0.000141715
43,63,4.98711,0.000139649
44,63,5.04809,0.000137388
45,63,5.10901,0.000134918
46,63,5.16986,0.000132221
47,63,5.23058,0.00012928
48,63,5.29116,0.000126076
49,63,5.35155,0.000122586
50,63,5.41171,0.000118786
51,63,5.4716,0.000114648
52,63,5.53119,0.000110142
53,63,5.59044,0.000105231
54,63,5.64931,9.98754e-05
55,63,5.70776,9.40258e-05
56,63,5.76574,8.76242e-05
57,63,5.82322,8.06e-05
58,63,5.88016,7.28646e-05
59,63,5.93651,6.43035e-05
60,63,5.99224,5.47633e-05
61,63,6.0473,4.40265e-05
62,63,6.10165,3.17641e-05
63,63,6.15524,1.74299e-05
