1,1,1.03174,-4.10147e-08
2,1,1.04799,-7.68717e-08
3,1,1.06448,-1.095e-07
4,1,1.08121,-1.39789e-07
5,1,1.0982,-1.6821e-07
6,1,1.11543,-1.9504e-07
7,1,1.1329,-2.20454e-07
8,1,1.15062,-2.44566e-07
9,1,1.16858,-2.67456e-07
10,1,1.18678,-2.89176e-07
11,1,1.20521,-3.09762e-07
12,1,1.22388,-3.29237e-07
13,1,1.24279,-3.47614e-07
14,1,1.26192,-3.64901e-07
15,1,1.28128,-3.81097e-07
16,1,1.30086,-3.96201e-07
17,1,1.32067,-4.10206e-07
18,1,1.34069,-4.23104e-07
19,1,1.36092,-4.34884e-07
20,1,1.38135,-4.45536e-07
21,1,1.40199,-4.55046e-07
22,1,1.42283,-4.63404e-07
23,1,1.44385,-4.70596e-07
24,1,1.46506,-4.7661e-07
25,1,1.48645,-4.81435e-07
26,1,1.50801,-4.85062e-07
27,1,1.52974,-4.8748e-07
28,1,1.55162,-4.88683e-07
29,1,1.57366,-4.88665e-07
30,1,1.59583,-4.87422e-07
31,1,1.61814,-4.84954e-07
32,1,1.64058,-4.81261e-07
33,1,1.66313,-4.76348e-07
34,1,1.68579,-4.70222e-07
35,1,1.70855,-4.62895e-07
36,1,1.73139,-4.54379e-07
37,1,1.75432,-4.44693e-07
38,1,1.7773,-4.3386e-07
39,1,1.80035,-4.21905e-07
40,1,1.82343,-4.0886e-07
41,1,1.84655,-3.94762e-07
42,1,1.86969,-3.7965e-07
43,1,1.89284,-3.63573e-07
44,1,1.91599,-3.46582e-07
45,1,1.93911,-3.28738e-07
46,1,1.96221,-3.10104e-07
47,1,1.98526,-2.90756e-07
48,1,2.00825,-2.70773e-07
49,1,2.03117,-2.50244e-07
50,1,2.05401,-2.2927e-07
51,1,2.07674,-2.07959e-07
52,1,2.09936,-1.86432e-07
53,1,2.12185,-1.64825e-07
54,1,2.1442,-1.43289e-07
55,1,2.16638,-1.21998e-07
56,1,2.1884,-1.01147e-07
57,1,2.21022,-8.09669e-08
58,1,2.23183,-6.17337e-08
59,1,2.25322,-4.37883e-08
60,1,2.27438,-2.75738e-08
61,1,2.29528,-1.37047e-08
62,1,2.31591,-3.11757e-09
63,1,2.33626,2.56176e-09
1,2,1.04799,-7.65437e-08
2,2,1.06449,-1.45774e-07
3,2,1.08124,-2.09588e-07
4,2,1.09824,-2.69142e-07
5,2,1.11549,-3.25156e-07
6,2,1.13299,-3.78093e-07
7,2,1.15074,-4.28263e-07
8,2,1.16874,-4.75875e-07
9,2,1.18698,-5.21074e-07
10,2,1.20546,-5.63961e-07
11,2,1.22419,-6.04605e-07
12,2,1.24316,-6.43048e-07
13,2,1.26236,-6.79318e-07
14,2,1.28179,-7.13429e-07
15,2,1.30146,-7.45382e-07
16,2,1.32135,-7.75174e-07
17,2,1.34146,-8.02794e-07
18,2,1.3618,-8.28225e-07
19,2,1.38235,-8.51448e-07
20,2,1.40311,-8.72444e-07
21,2,1.42407,-8.91188e-07
22,2,1.44523,-9.07659e-07
23,2,1.46659,-9.21833e-07
24,2,1.48813,-9.33687e-07
25,2,1.50986,-9.43201e-07
26,2,1.53176,-9.50357e-07
27,2,1.55383,-9.55138e-07
28,2,1.57606,-9.5753e-07
29,2,1.59844,-9.57526e-07
30,2,1.62096,-9.55118e-07
31,2,1.64363,-9.50306e-07
32,2,1.66642,-9.43096e-07
33,2,1.68932,-9.33495e-07
34,2,1.71234,-9.21521e-07
35,2,1.73546,-9.07196e-07
36,2,1.75866,-8.9055e-07
37,2,1.78194,-8.71619e-07
38,2,1.80529,-8.50449e-07
39,2,1.8287,-8.27094e-07
40,2,1.85215,-8.01616e-07
41,2,1.87563,-7.74088e-07
42,2,1.89914,-7.44594e-07
43,2,1.92265,-7.13226e-07
44,2,1.94616,-6.8009e-07
45,2,1.96965,-6.45305e-07
46,2,1.99311,-6.09e-07
47,2,2.01652,-5.71321e-07
48,2,2.03987,-5.32428e-07
49,2,2.06316,-4.92499e-07
50,2,2.08635,-4.5173e-07
51,2,2.10945,-4.10336e-07
52,2,2.13242,-3.68558e-07
53,2,2.15527,-3.26662e-07
54,2,2.17796,-2.84946e-07
55,2,2.2005,-2.43748e-07
56,2,2.22286,-2.03451e-07
57,2,2.24502,-1.64501e-07
58,2,2.26698,-1.27427e-07
59,2,2.2887,-9.28733e-08
60,2,2.31019,-6.16517e-08
61,2,2.33142,-3.48378e-08
62,2,2.35238,-1.39351e-08
63,2,2.37305,-1.17265e-09
1,3,1.06449,-1.08575e-07
2,3,1.08125,-2.0872e-07
3,3,1.09827,-3.01998e-07
4,3,1.11553,-3.89535e-07
5,3,1.13306,-4.72119e-07
6,3,1.15083,-5.50299e-07
7,3,1.16886,-6.24464e-07
8,3,1.18714,-6.94886e-07
9,3,1.20567,-7.6176e-07
10,3,1.22445,-8.25221e-07
11,3,1.24347,-8.85363e-07
12,3,1.26273,-9.42248e-07
13,3,1.28224,-9.95913e-07
14,3,1.30198,-1.04638e-06
15,3,1.32195,-1.09364e-06
16,3,1.34216,-1.13771e-06
17,3,1.36259,-1.17855e-06
18,3,1.38324,-1.21615e-06
19,3,1.40412,-1.25049e-06
20,3,1.4252,-1.28152e-06
21,3,1.44649,-1.30923e-06
22,3,1.46799,-1.33358e-06
23,3,1.48968,-1.35453e-06
24,3,1.51157,-1.37206e-06
25,3,1.53363,-1.38613e-06
26,3,1.55588,-1.39672e-06
27,3,1.5783,-1.40381e-06
28,3,1.60088,-1.40739e-06
29,3,1.62361,-1.40743e-06
30,3,1.64649,-1.40394e-06
31,3,1.66951,-1.39691e-06
32,3,1.69266,-1.38635e-06
33,3,1.71593,-1.37228e-06
34,3,1.73931,-1.35473e-06
35,3,1.76278,-1.33373e-06
36,3,1.78635,-1.30932e-06
37,3,1.81,-1.28157e-06
38,3,1.83372,-1.25054e-06
39,3,1.8575,-1.21632e-06
40,3,1.88132,-1.17899e-06
41,3,1.90517,-1.13868e-06
42,3,1.92904,-1.09549e-06
43,3,1.95293,-1.04958e-06
44,3,1.9768,-1.0011e-06
45,3,2.00066,-9.50228e-07
46,3,2.02449,-8.97157e-07
47,3,2.04827,-8.42103e-07
48,3,2.072,-7.85305e-07
49,3,2.09565,-7.27026e-07
50,3,2.11921,-6.67554e-07
51,3,2.14266,-6.07211e-07
52,3,2.166,-5.46348e-07
53,3,2.18921,-4.85358e-07
54,3,2.21226,-4.24676e-07
55,3,2.23515,-3.64793e-07
56,3,2.25786,-3.06264e-07
57,3,2.28037,-2.49729e-07
58,3,2.30268,-1.95932e-07
59,3,2.32475,-1.45764e-07
60,3,2.34657,-1.0031e-07
61,3,2.36814,-6.09391e-08
62,3,2.38943,-2.94185e-08
63,3,2.41042,-8.08346e-09
1,4,1.08126,-1.38054e-07
2,4,1.09828,-2.66979e-07
3,4,1.11556,-3.88024e-07
4,4,1.1331,-5.02186e-07
5,4,1.1509,-6.1022e-07
6,4,1.16896,-7.12693e-07
7,4,1.18727,-8.1002e-07
8,4,1.20584,-9.02507e-07
9,4,1.22466,-9.90374e-07
10,4,1.24373,-1.07378e-06
11,4,1.26305,-1.15284e-06
12,4,1.28262,-1.22762e-06
13,4,1.30243,-1.29817e-06
14,4,1.32248,-1.3645e-06
15,4,1.34277,-1.42663e-06
16,4,1.36329,-1.48455e-06
17,4,1.38405,-1.53823e-06
18,4,1.40503,-1.58764e-06
19,4,1.42623,-1.63276e-06
20,4,1.44764,-1.67354e-06
21,4,1.46927,-1.70994e-06
22,4,1.49111,-1.74193e-06
23,4,1.51314,-1.76946e-06
24,4,1.53537,-1.7925e-06
25,4,1.55779,-1.811e-06
26,4,1.58038,-1.82495e-06
27,4,1.60315,-1.8343e-06
28,4,1.62608,-1.83905e-06
29,4,1.64918,-1.83917e-06
30,4,1.67242,-1.83467e-06
31,4,1.6958,-1.82555e-06
32,4,1.71931,-1.81181e-06
33,4,1.74295,-1.79349e-06
34,4,1.76669,-1.77062e-06
35,4,1.79054,-1.74325e-06
36,4,1.81449,-1.71145e-06
37,4,1.83851,-1.67528e-06
38,4,1.8626,-1.63485e-06
39,4,1.88675,-1.59027e-06
40,4,1.91094,-1.54166e-06
41,4,1.93517,-1.48916e-06
42,4,1.95942,-1.43295e-06
43,4,1.98368,-1.3732e-06
44,4,2.00793,-1.31013e-06
45,4,2.03217,-1.24398e-06
46,4,2.05637,-1.17499e-06
47,4,2.08053,-1.10346e-06
48,4,2.10463,-1.02969e-06
49,4,2.12865,-9.5404e-07
50,4,2.15258,-8.76877e-07
51,4,2.17641,-7.98625e-07
52,4,2.20011,-7.19741e-07
53,4,2.22368,-6.40736e-07
54,4,2.2471,-5.62173e-07
55,4,2.27035,-4.84682e-07
56,4,2.29342,-4.08971e-07
57,4,2.31629,-3.35844e-07
58,4,2.33894,-2.66224e-07
59,4,2.36136,-2.0119e-07
60,4,2.38353,-1.42017e-07
61,4,2.40543,-9.02401e-08
62,4,2.42705,-4.77243e-08
63,4,2.44838,-1.67414e-08
1,5,1.09828,-1.65509e-07
2,5,1.11557,-3.21382e-07
3,5,1.13313,-4.68618e-07
4,5,1.15095,-6.08067e-07
5,5,1.16902,-7.40411e-07
6,5,1.18737,-8.66185e-07
7,5,1.20597,-9.85801e-07
8,5,1.22483,-1.09957e-06
9,5,1.24394,-1.20772e-06
10,5,1.26331,-1.31042e-06
11,5,1.28294,-1.40779e-06
12,5,1.30281,-1.49991e-06
13,5,1.32294,-1.58681e-06
14,5,1.34331,-1.66854e-06
15,5,1.36391,-1.74508e-06
16,5,1.38476,-1.81642e-06
17,5,1.40584,-1.88254e-06
18,5,1.42715,-1.94341e-06
19,5,1.44869,-1.99898e-06
20,5,1.47044,-2.04921e-06
21,5,1.49241,-2.09405e-06
22,5,1.51459,-2.13345e-06
23,5,1.53697,-2.16737e-06
24,5,1.55955,-2.19575e-06
25,5,1.58232,-2.21857e-06
26,5,1.60527,-2.23578e-06
27,5,1.6284,-2.24735e-06
28,5,1.65169,-2.25327e-06
29,5,1.67515,-2.25351e-06
30,5,1.69875,-2.24807e-06
31,5,1.7225,-2.23697e-06
32,5,1.74639,-2.22022e-06
33,5,1.77039,-2.19785e-06
34,5,1.79452,-2.16992e-06
35,5,1.81874,-2.13648e-06
36,5,1.84306,-2.09762e-06
37,5,1.86746,-2.05344e-06
38,5,1.89193,-2.00405e-06
39,5,1.91646,-1.94959e-06
40,5,1.94103,-1.89022e-06
41,5,1.96565,-1.82612e-06
42,5,1.99028,-1.7575e-06
43,5,2.01492,-1.6846e-06
44,5,2.03955,-1.60766e-06
45,5,2.06417,-1.52698e-06
46,5,2.08876,-1.44288e-06
47,5,2.11329,-1.35571e-06
48,5,2.13777,-1.26584e-06
49,5,2.16217,-1.17372e-06
50,5,2.18648,-1.0798e-06
51,5,2.21068,-9.84594e-07
52,5,2.23476,-8.8866e-07
53,5,2.2587,-7.92617e-07
54,5,2.28249,-6.97144e-07
55,5,2.3061,-6.02994e-07
56,5,2.32953,-5.1101e-07
57,5,2.35276,-4.22133e-07
58,5,2.37577,-3.3743e-07
59,5,2.39854,-2.5812e-07
60,5,2.42106,-1.85603e-07
61,5,2.44331,-1.21504e-07
62,5,2.46528,-6.77099e-08
63,5,2.48694,-2.63928e-08
1,6,1.11558,-1.91272e-07
2,6,1.13314,-3.725e-07
3,6,1.15097,-5.44491e-07
4,6,1.16907,-7.07954e-07
5,6,1.18743,-8.63485e-07
6,6,1.20606,-1.01157e-06
7,6,1.22496,-1.15259e-06
8,6,1.24411,-1.28684e-06
9,6,1.26353,-1.41454e-06
10,6,1.28321,-1.53587e-06
11,6,1.30314,-1.65093e-06
12,6,1.32333,-1.75981e-06
13,6,1.34377,-1.86255e-06
14,6,1.36446,-1.95917e-06
15,6,1.38539,-2.04966e-06
16,6,1.40657,-2.13401e-06
17,6,1.42798,-2.21218e-06
18,6,1.44963,-2.28414e-06
19,6,1.4715,-2.34984e-06
20,6,1.4936,-2.40922e-06
21,6,1.51591,-2.46224e-06
22,6,1.53844,-2.50883e-06
23,6,1.56117,-2.54894e-06
24,6,1.58411,-2.58252e-06
25,6,1.60723,-2.60953e-06
26,6,1.63055,-2.62992e-06
27,6,1.65404,-2.64367e-06
28,6,1.6777,-2.65074e-06
29,6,1.70153,-2.65113e-06
30,6,1.72551,-2.64484e-06
31,6,1.74963,-2.63187e-06
32,6,1.77389,-2.61226e-06
33,6,1.79827,-2.58605e-06
34,6,1.82277,-2.5533e-06
35,6,1.84738,-2.51408e-06
36,6,1.87208,-2.4685e-06
37,6,1.89687,-2.41667e-06
38,6,1.92172,-2.35873e-06
39,6,1.94664,-2.29486e-06
40,6,1.9716,-2.22524e-06
41,6,1.9966,-2.1501e-06
42,6,2.02162,-2.06967e-06
43,6,2.04665,-1.98424e-06
44,6,2.07167,-1.8941e-06
45,6,2.09668,-1.79961e-06
46,6,2.12165,-1.70115e-06
47,6,2.14657,-1.59911e-06
48,6,2.17143,-1.49397e-06
49,6,2.19622,-1.38622e-06
50,6,2.22091,-1.2764e-06
51,6,2.24549,-1.16512e-06
52,6,2.26995,-1.05302e-06
53,6,2.29427,-9.40824e-07
54,6,2.31843,-8.29311e-07
55,6,2.34242,-7.19348e-07
56,6,2.36622,-6.11887e-07
57,6,2.38981,-5.07989e-07
58,6,2.41318,-4.08831e-07
59,6,2.43631,-3.15736e-07
60,6,2.45919,-2.3019e-07
61,6,2.48179,-1.53866e-07
62,6,2.5041,-8.8639e-08
63,6,2.5261,-3.65948e-08
1,7,1.13315,-2.1557e-07
2,7,1.15099,-4.20747e-07
3,7,1.1691,-6.16185e-07
4,7,1.18748,-8.02469e-07
5,7,1.20613,-9.80108e-07
6,7,1.22506,-1.14952e-06
7,7,1.24425,-1.31106e-06
8,7,1.26371,-1.46499e-06
9,7,1.28343,-1.61151e-06
10,7,1.30342,-1.75079e-06
11,7,1.32366,-1.88293e-06
12,7,1.34417,-2.00799e-06
13,7,1.36493,-2.12602e-06
14,7,1.38595,-2.23704e-06
15,7,1.40721,-2.34102e-06
16,7,1.42872,-2.43795e-06
17,7,1.45047,-2.52779e-06
18,7,1.47245,-2.61049e-06
19,7,1.49467,-2.68599e-06
20,7,1.51712,-2.75424e-06
21,7,1.53978,-2.81517e-06
22,7,1.56267,-2.86872e-06
23,7,1.58576,-2.91484e-06
24,7,1.60905,-2.95346e-06
25,7,1.63254,-2.98454e-06
26,7,1.65622,-3.00803e-06
27,7,1.68009,-3.02391e-06
28,7,1.70412,-3.03213e-06
29,7,1.72832,-3.03271e-06
30,7,1.75268,-3.02562e-06
31,7,1.77718,-3.01091e-06
32,7,1.80182,-2.98859e-06
33,7,1.82659,-2.95872e-06
34,7,1.85148,-2.92138e-06
35,7,1.87647,-2.87665e-06
36,7,1.90156,-2.82466e-06
37,7,1.92674,-2.76555e-06
38,7,1.95198,-2.69947e-06
39,7,1.97729,-2.62663e-06
40,7,2.00265,-2.54725e-06
41,7,2.02804,-2.46157e-06
42,7,2.05346,-2.36989e-06
43,7,2.07888,-2.27253e-06
44,7,2.1043,-2.16984e-06
45,7,2.12969,-2.06221e-06
46,7,2.15506,-1.95008e-06
47,7,2.18038,-1.83392e-06
48,7,2.20563,-1.71426e-06
49,7,2.2308,-1.59166e-06
50,7,2.25588,-1.46675e-06
51,7,2.28085,-1.34019e-06
52,7,2.3057,-1.21274e-06
53,7,2.3304,-1.08519e-06
54,7,2.35494,-9.58428e-07
55,7,2.37931,-8.33407e-07
56,7,2.40348,-7.1118e-07
57,7,2.42745,-5.92903e-07
58,7,2.45118,-4.79843e-07
59,7,2.47468,-3.73403e-07
60,7,2.49791,-2.75125e-07
61,7,2.52087,-1.8671e-07
62,7,2.54353,-1.10018e-07
63,7,2.56588,-4.70659e-08
1,8,1.15099,-2.38571e-07
2,8,1.16911,-4.66436e-07
3,8,1.18751,-6.84124e-07
4,8,1.20618,-8.92115e-07
5,8,1.22513,-1.09083e-06
6,8,1.24435,-1.28064e-06
7,8,1.26384,-1.46183e-06
8,8,1.28361,-1.63464e-06
9,8,1.30364,-1.79925e-06
10,8,1.32394,-1.9558e-06
11,8,1.34451,-2.10438e-06
12,8,1.36534,-2.24506e-06
13,8,1.38643,-2.37785e-06
14,8,1.40777,-2.50276e-06
15,8,1.42937,-2.61977e-06
16,8,1.45122,-2.72886e-06
17,8,1.47331,-2.82997e-06
18,8,1.49564,-2.92305e-06
19,8,1.51821,-3.00803e-06
20,8,1.54101,-3.08485e-06
21,8,1.56403,-3.15345e-06
22,8,1.58727,-3.21374e-06
23,8,1.61073,-3.26568e-06
24,8,1.63439,-3.30919e-06
25,8,1.65825,-3.34422e-06
26,8,1.68231,-3.37073e-06
27,8,1.70654,-3.38868e-06
28,8,1.73096,-3.39805e-06
29,8,1.75554,-3.39883e-06
30,8,1.78028,-3.39103e-06
31,8,1.80517,-3.37467e-06
32,8,1.8302,-3.34979e-06
33,8,1.85536,-3.31645e-06
34,8,1.88064,-3.27474e-06
35,8,1.90602,-3.22477e-06
36,8,1.93151,-3.16667e-06
37,8,1.95708,-3.10061e-06
38,8,1.98272,-3.02677e-06
39,8,2.00843,-2.94538e-06
40,8,2.03419,-2.85669e-06
41,8,2.05998,-2.76099e-06
42,8,2.08579,-2.65859e-06
43,8,2.11162,-2.54987e-06
44,8,2.13743,-2.43522e-06
45,8,2.16323,-2.31508e-06
46,8,2.189,-2.18995e-06
47,8,2.21471,-2.06035e-06
48,8,2.24036,-1.92687e-06
49,8,2.26593,-1.79015e-06
50,8,2.29141,-1.65088e-06
51,8,2.31677,-1.5098e-06
52,8,2.34201,-1.36774e-06
53,8,2.3671,-1.22558e-06
54,8,2.39203,-1.08428e-06
55,8,2.41678,-9.44884e-07
56,8,2.44133,-8.08532e-07
57,8,2.46567,-6.76457e-07
58,8,2.48979,-5.50001e-07
59,8,2.51365,-4.30625e-07
60,8,2.53725,-3.19916e-07
61,8,2.56057,-2.19593e-07
62,8,2.58359,-1.31504e-07
63,8,2.60629,-5.76169e-08
1,9,1.16912,-2.60403e-07
2,9,1.18752,-5.09812e-07
3,9,1.20621,-7.4865e-07
4,9,1.22517,-9.77306e-07
5,9,1.24442,-1.19613e-06
6,9,1.26394,-1.40542e-06
7,9,1.28374,-1.60542e-06
8,9,1.30382,-1.79633e-06
9,9,1.32417,-1.97831e-06
10,9,1.34479,-2.15146e-06
11,9,1.36568,-2.31587e-06
12,9,1.38684,-2.47157e-06
13,9,1.40826,-2.61858e-06
14,9,1.42994,-2.75689e-06
15,9,1.45188,-2.88648e-06
16,9,1.47407,-3.0073e-06
17,9,1.49651,-3.11929e-06
18,9,1.51919,-3.22239e-06
19,9,1.54212,-3.31654e-06
20,9,1.56527,-3.40165e-06
21,9,1.58866,-3.47765e-06
22,9,1.61227,-3.54446e-06
23,9,1.63609,-3.60203e-06
24,9,1.66013,-3.65027e-06
25,9,1.68437,-3.68914e-06
26,9,1.7088,-3.71858e-06
27,9,1.73342,-3.73857e-06
28,9,1.75822,-3.74907e-06
29,9,1.78318,-3.75009e-06
30,9,1.80831,-3.74163e-06
31,9,1.83359,-3.72372e-06
32,9,1.85902,-3.69641e-06
33,9,1.88457,-3.65977e-06
34,9,1.91025,-3.61391e-06
35,9,1.93604,-3.55894e-06
36,9,1.96192,-3.49503e-06
37,9,1.9879,-3.42235e-06
38,9,2.01395,-3.34111e-06
39,9,2.04006,-3.25157e-06
40,9,2.06622,-3.15401e-06
41,9,2.09242,-3.04874e-06
42,9,2.11864,-2.93613e-06
43,9,2.14487,-2.81658e-06
44,9,2.17109,-2.69054e-06
45,9,2.1973,-2.55849e-06
46,9,2.22347,-2.42098e-06
47,9,2.24959,-2.27858e-06
48,9,2.27564,-2.13195e-06
49,9,2.30162,-1.98179e-06
50,9,2.32749,-1.82884e-06
51,9,2.35326,-1.67393e-06
52,9,2.37889,-1.51794e-06
53,9,2.40437,-1.36184e-06
54,9,2.42969,-1.20667e-06
55,9,2.45483,-1.05353e-06
56,9,2.47978,-9.03648e-07
57,9,2.5045,-7.58313e-07
58,9,2.52899,-6.18933e-07
59,9,2.55323,-4.87019e-07
60,9,2.57721,-3.64194e-07
61,9,2.60089,-2.52191e-07
62,9,2.62427,-1.52852e-07
63,9,2.64733,-6.81157e-08
1,10,1.18753,-2.81169e-07
2,10,1.20622,-5.5107e-07
3,10,1.2252,-8.1004e-07
4,10,1.24447,-1.05839e-06
5,10,1.26402,-1.29639e-06
6,10,1.28385,-1.52429e-06
7,10,1.30396,-1.74229e-06
8,10,1.32435,-1.95055e-06
9,10,1.34502,-2.14918e-06
10,10,1.36597,-2.33828e-06
11,10,1.38719,-2.51789e-06
12,10,1.40868,-2.68805e-06
13,10,1.43044,-2.84875e-06
14,10,1.45246,-2.99997e-06
15,10,1.47474,-3.14167e-06
16,10,1.49728,-3.27379e-06
17,10,1.52008,-3.39628e-06
18,10,1.54312,-3.50906e-06
19,10,1.5664,-3.61204e-06
20,10,1.58992,-3.70515e-06
21,10,1.61368,-3.7883e-06
22,10,1.63766,-3.86142e-06
23,10,1.66186,-3.92442e-06
24,10,1.68627,-3.97725e-06
25,10,1.71089,-4.01984e-06
26,10,1.73571,-4.05213e-06
27,10,1.76071,-4.0741e-06
28,10,1.7859,-4.08572e-06
29,10,1.81126,-4.08699e-06
30,10,1.83679,-4.07793e-06
31,10,1.86247,-4.05856e-06
32,10,1.88829,-4.02895e-06
33,10,1.91425,-3.98919e-06
34,10,1.94033,-3.93938e-06
35,10,1.96653,-3.87966e-06
36,10,1.99282,-3.8102e-06
37,10,2.0192,-3.7312e-06
38,10,2.04566,-3.64292e-06
39,10,2.07218,-3.5456e-06
40,10,2.09876,-3.43958e-06
41,10,2.12537,-3.3252e-06
42,10,2.152,-3.20285e-06
43,10,2.17865,-3.07299e-06
44,10,2.20528,-2.93609e-06
45,10,2.2319,-2.79269e-06
46,10,2.25848,-2.64337e-06
47,10,2.28501,-2.48878e-06
48,10,2.31148,-2.32962e-06
49,10,2.33786,-2.16664e-06
50,10,2.36415,-2.00066e-06
51,10,2.39031,-1.83256e-06
52,10,2.41635,-1.66329e-06
53,10,2.44224,-1.49389e-06
54,10,2.46796,-1.32545e-06
55,10,2.49349,-1.15916e-06
56,10,2.51883,-9.96285e-07
57,10,2.54394,-8.38196e-07
58,10,2.56882,-6.86346e-07
59,10,2.59344,-5.42289e-07
60,10,2.61779,-4.07677e-07
61,10,2.64185,-2.84262e-07
62,10,2.6656,-1.73884e-07
63,10,2.68902,-7.84667e-08
1,11,1.20623,-3.00951e-07
2,11,1.22522,-5.90373e-07
3,11,1.2445,-8.68525e-07
4,11,1.26407,-1.13565e-06
5,11,1.28392,-1.39196e-06
6,11,1.30407,-1.63764e-06
7,11,1.32449,-1.87286e-06
8,11,1.34521,-2.09772e-06
9,11,1.3662,-2.31231e-06
10,11,1.38748,-2.51671e-06
11,11,1.40903,-2.71092e-06
12,11,1.43086,-2.89497e-06
13,11,1.45296,-3.06883e-06
14,11,1.47533,-3.23247e-06
15,11,1.49797,-3.38582e-06
16,11,1.52086,-3.52884e-06
17,11,1.54401,-3.66143e-06
18,11,1.56742,-3.78353e-06
19,11,1.59107,-3.89503e-06
20,11,1.61496,-3.99585e-06
21,11,1.63909,-4.0859e-06
22,11,1.66345,-4.1651e-06
23,11,1.68803,-4.23336e-06
24,11,1.71283,-4.29062e-06
25,11,1.73783,-4.3368e-06
26,11,1.76304,-4.37186e-06
27,11,1.78844,-4.39576e-06
28,11,1.81403,-4.40849e-06
29,11,1.83979,-4.41003e-06
30,11,1.86571,-4.40042e-06
31,11,1.8918,-4.37968e-06
32,11,1.91803,-4.3479e-06
33,11,1.9444,-4.30516e-06
34,11,1.97089,-4.25159e-06
35,11,1.99749,-4.18734e-06
36,11,2.0242,-4.1126e-06
37,11,2.051,-4.02759e-06
38,11,2.07788,-3.93257e-06
39,11,2.10482,-3.82785e-06
40,11,2.13181,-3.71376e-06
41,11,2.15884,-3.59069e-06
42,11,2.18589,-3.45906e-06
43,11,2.21295,-3.31936e-06
44,11,2.24001,-3.1721e-06
45,11,2.26705,-3.01788e-06
46,11,2.29405,-2.85731e-06
47,11,2.321,-2.6911e-06
48,11,2.34788,-2.51999e-06
49,11,2.37468,-2.34479e-06
50,11,2.40138,-2.16637e-06
51,11,2.42796,-1.98568e-06
52,11,2.4544,-1.80373e-06
53,11,2.4807,-1.62161e-06
54,11,2.50682,-1.44048e-06
55,11,2.53276,-1.26158e-06
56,11,2.55849,-1.08624e-06
57,11,2.584,-9.15885e-07
58,11,2.60927,-7.52007e-07
59,11,2.63428,-5.96201e-07
60,11,2.65902,-4.5015e-07
61,11,2.68345,-3.15622e-07
62,11,2.70757,-1.94466e-07
63,11,2.73136,-8.85997e-08
1,12,1.22522,-3.19818e-07
2,12,1.24451,-6.27853e-07
3,12,1.2641,-9.243e-07
4,12,1.28397,-1.20934e-06
5,12,1.30414,-1.48312e-06
6,12,1.3246,-1.7458e-06
7,12,1.34535,-1.99747e-06
8,12,1.36639,-2.23822e-06
9,12,1.38772,-2.46811e-06
10,12,1.40933,-2.68716e-06
11,12,1.43122,-2.89538e-06
12,12,1.45339,-3.09276e-06
13,12,1.47584,-3.27926e-06
14,12,1.49856,-3.45482e-06
15,12,1.52155,-3.61939e-06
16,12,1.54481,-3.77288e-06
17,12,1.56833,-3.91519e-06
18,12,1.5921,-4.04626e-06
19,12,1.61612,-4.16596e-06
20,12,1.64039,-4.27421e-06
21,12,1.6649,-4.37091e-06
22,12,1.68964,-4.45597e-06
23,12,1.71461,-4.5293e-06
24,12,1.7398,-4.59083e-06
25,12,1.7652,-4.64049e-06
26,12,1.7908,-4.67823e-06
27,12,1.8166,-4.70401e-06
28,12,1.84259,-4.71781e-06
29,12,1.86876,-4.71964e-06
30,12,1.8951,-4.70952e-06
31,12,1.92159,-4.6875e-06
32,12,1.94823,-4.65366e-06
33,12,1.97502,-4.60809e-06
34,12,2.00192,-4.55094e-06
35,12,2.02895,-4.48238e-06
36,12,2.05608,-4.40261e-06
37,12,2.0833,-4.31186e-06
38,12,2.1106,-4.21044e-06
39,12,2.13796,-4.09865e-06
40,12,2.16538,-3.97686e-06
41,12,2.19283,-3.8455e-06
42,12,2.22031,-3.70502e-06
43,12,2.2478,-3.55593e-06
44,12,2.27529,-3.3988e-06
45,12,2.30275,-3.23426e-06
46,12,2.33017,-3.06296e-06
47,12,2.35755,-2.88566e-06
48,12,2.38485,-2.70315e-06
49,12,2.41207,-2.51629e-06
50,12,2.43919,-2.326e-06
51,12,2.46619,-2.13329e-06
52,12,2.49305,-1.93922e-06
53,12,2.51976,-1.74493e-06
54,12,2.5463,-1.55165e-06
55,12,2.57264,-1.36067e-06
56,12,2.59878,-1.17336e-06
57,12,2.62469,-9.91202e-07
58,12,2.65036,-8.1573e-07
59,12,2.67577,-6.48574e-07
60,12,2.70089,-4.91446e-07
61,12,2.72571,-3.46134e-07
62,12,2.75021,-2.14498e-07
63,12,2.77438,-9.84617e-08
1,13,1.24452,-3.37828e-07
2,13,1.26411,-6.63625e-07
3,13,1.284,-9.77529e-07
4,13,1.30419,-1.27966e-06
5,13,1.32468,-1.57014e-06
6,13,1.34546,-1.84904e-06
7,13,1.36654,-2.11644e-06
8,13,1.38791,-2.37239e-06
9,13,1.40957,-2.61691e-06
10,13,1.43152,-2.85e-06
11,13,1.45376,-3.07165e-06
12,13,1.47628,-3.28181e-06
13,13,1.49908,-3.48043e-06
14,13,1.52216,-3.66745e-06
15,13,1.54552,-3.84277e-06
16,13,1.56914,-4.00631e-06
17,13,1.59303,-4.15798e-06
18,13,1.61717,-4.29766e-06
19,13,1.64157,-4.42525e-06
20,13,1.66623,-4.54065e-06
21,13,1.69112,-4.64374e-06
22,13,1.71625,-4.73444e-06
23,13,1.74161,-4.81266e-06
24,13,1.7672,-4.87831e-06
25,13,1.793,-4.93132e-06
26,13,1.819,-4.97165e-06
27,13,1.84521,-4.99925e-06
28,13,1.87161,-5.01411e-06
29,13,1.89819,-5.01623e-06
30,13,1.92494,-5.00565e-06
31,13,1.95185,-4.98242e-06
32,13,1.97891,-4.94662e-06
33,13,2.00612,-4.89837e-06
34,13,2.03345,-4.83782e-06
35,13,2.0609,-4.76514e-06
36,13,2.08846,-4.68057e-06
37,13,2.11611,-4.58436e-06
38,13,2.14383,-4.47682e-06
39,13,2.17163,-4.35829e-06
40,13,2.19948,-4.22917e-06
41,13,2.22737,-4.0899e-06
42,13,2.25528,-3.94097e-06
43,13,2.2832,-3.78293e-06
44,13,2.31112,-3.61639e-06
45,13,2.33901,-3.44199e-06
46,13,2.36687,-3.26046e-06
47,13,2.39467,-3.07258e-06
48,13,2.42241,-2.87918e-06
49,13,2.45006,-2.68119e-06
50,13,2.4776,-2.47957e-06
51,13,2.50503,-2.27537e-06
52,13,2.53231,-2.06971e-06
53,13,2.55944,-1.86379e-06
54,13,2.5864,-1.65887e-06
55,13,2.61316,-1.4563e-06
56,13,2.63971,-1.25751e-06
57,13,2.66603,-1.06401e-06
58,13,2.6921,-8.77368e-07
59,13,2.7179,-6.99265e-07
60,13,2.74342,-5.31435e-07
61,13,2.76863,-3.75688e-07
62,13,2.79352,-2.33903e-07
63,13,2.81807,-1.08012e-07
1,14,1.26412,-3.55029e-07
2,14,1.28402,-6.97784e-07
3,14,1.30422,-1.02835e-06
4,14,1.32473,-1.3468e-06
5,14,1.34554,-1.65321e-06
6,14,1.36665,-1.94761e-06
7,14,1.38806,-2.23005e-06
8,14,1.40976,-2.50053e-06
9,14,1.43177,-2.75904e-06
10,14,1.45406,-3.00557e-06
11,14,1.47665,-3.24006e-06
12,14,1.49953,-3.46246e-06
13,14,1.52269,-3.6727e-06
14,14,1.54613,-3.87069e-06
15,14,1.56985,-4.05634e-06
16,14,1.59385,-4.22953e-06
17,14,1.61811,-4.39016e-06
18,14,1.64264,-4.53811e-06
19,14,1.66743,-4.67328e-06
20,14,1.69246,-4.79553e-06
21,14,1.71775,-4.90478e-06
22,14,1.74328,-5.0009e-06
23,14,1.76904,-5.08381e-06
24,14,1.79503,-5.15342e-06
25,14,1.82123,-5.20967e-06
26,14,1.84765,-5.25249e-06
27,14,1.87427,-5.28185e-06
28,14,1.90108,-5.29774e-06
29,14,1.92808,-5.30016e-06
30,14,1.95525,-5.28916e-06
31,14,1.98259,-5.26478e-06
32,14,2.01008,-5.22713e-06
33,14,2.03771,-5.17633e-06
34,14,2.06547,-5.11253e-06
35,14,2.09336,-5.03595e-06
36,14,2.12135,-4.9468e-06
37,14,2.14943,-4.84538e-06
38,14,2.17759,-4.73201e-06
39,14,2.20583,-4.60705e-06
40,14,2.23412,-4.47093e-06
41,14,2.26244,-4.32411e-06
42,14,2.29079,-4.16713e-06
43,14,2.31915,-4.00055e-06
44,14,2.34751,-3.82502e-06
45,14,2.37584,-3.64123e-06
46,14,2.40414,-3.44993e-06
47,14,2.43238,-3.25195e-06
48,14,2.46056,-3.04817e-06
49,14,2.48864,-2.83954e-06
50,14,2.51662,-2.62709e-06
51,14,2.54448,-2.41192e-06
52,14,2.57219,-2.19518e-06
53,14,2.59975,-1.97812e-06
54,14,2.62713,-1.76206e-06
55,14,2.65431,-1.54839e-06
56,14,2.68128,-1.33858e-06
57,14,2.70801,-1.13418e-06
58,14,2.73449,-9.36804e-07
59,14,2.7607,-7.4816e-07
60,14,2.78662,-5.70014e-07
61,14,2.81223,-4.04201e-07
62,14,2.83751,-2.5262e-07
63,14,2.86245,-1.17221e-07
1,15,1.28402,-3.71463e-07
2,15,1.30424,-7.30412e-07
3,15,1.32476,-1.07689e-06
4,15,1.34559,-1.41092e-06
5,15,1.36673,-1.73253e-06
6,15,1.38817,-2.04174e-06
7,15,1.40992,-2.33853e-06
8,15,1.43197,-2.62288e-06
9,15,1.45431,-2.89477e-06
10,15,1.47696,-3.15414e-06
11,15,1.49991,-3.40092e-06
12,15,1.52314,-3.63504e-06
13,15,1.54667,-3.85639e-06
14,15,1.57048,-4.06489e-06
15,15,1.59458,-4.26042e-06
16,15,1.61895,-4.44285e-06
17,15,1.64359,-4.61207e-06
18,15,1.66851,-4.76796e-06
19,15,1.69368,-4.91038e-06
20,15,1.71912,-5.03922e-06
21,15,1.7448,-5.15435e-06
22,15,1.77073,-5.25568e-06
23,15,1.7969,-5.3431e-06
24,15,1.82329,-5.41652e-06
25,15,1.84991,-5.47586e-06
26,15,1.87675,-5.52109e-06
27,15,1.90378,-5.55215e-06
28,15,1.93102,-5.56904e-06
29,15,1.95844,-5.57176e-06
30,15,1.98604,-5.56036e-06
31,15,2.01381,-5.53491e-06
32,15,2.04173,-5.4955e-06
33,15,2.0698,-5.44227e-06
34,15,2.098,-5.37539e-06
35,15,2.12632,-5.29507e-06
36,15,2.15475,-5.20156e-06
37,15,2.18328,-5.09517e-06
38,15,2.21189,-4.97624e-06
39,15,2.24056,-4.84515e-06
40,15,2.2693,-4.70236e-06
41,15,2.29807,-4.54835e-06
42,15,2.32687,-4.38368e-06
43,15,2.35568,-4.20895e-06
44,15,2.38448,-4.02485e-06
45,15,2.41326,-3.83209e-06
46,15,2.442,-3.63147e-06
47,15,2.47069,-3.42385e-06
48,15,2.4993,-3.21015e-06
49,15,2.52783,-2.99138e-06
50,15,2.55625,-2.76859e-06
51,15,2.58454,-2.54293e-06
52,15,2.6127,-2.3156e-06
53,15,2.64069,-2.08789e-06
54,15,2.6685,-1.86117e-06
55,15,2.69611,-1.63686e-06
56,15,2.7235,-1.41648e-06
57,15,2.75066,-1.20162e-06
58,15,2.77756,-9.93941e-07
59,15,2.80418,-7.95167e-07
60,15,2.83051,-6.07101e-07
61,15,2.85652,-4.31606e-07
62,15,2.8822,-2.70602e-07
63,15,2.90752,-1.26062e-07
1,16,1.30424,-3.87166e-07
2,16,1.32478,-7.61579e-07
3,16,1.34562,-1.12324e-06
4,16,1.36678,-1.47214e-06
5,16,1.38825,-1.80826e-06
6,16,1.41003,-2.13159e-06
7,16,1.43212,-2.44208e-06
8,16,1.45452,-2.73969e-06
9,16,1.47722,-3.02434e-06
10,16,1.50022,-3.29598e-06
11,16,1.52353,-3.5545e-06
12,16,1.54713,-3.7998e-06
13,16,1.57103,-4.03179e-06
14,16,1.59521,-4.25033e-06
15,16,1.61969,-4.4553e-06
16,16,1.64444,-4.64658e-06
17,16,1.66948,-4.82402e-06
18,16,1.69478,-4.98749e-06
19,16,1.72035,-5.13686e-06
20,16,1.74619,-5.272e-06
21,16,1.77228,-5.39278e-06
22,16,1.79862,-5.49909e-06
23,16,1.82519,-5.59082e-06
24,16,1.85201,-5.66789e-06
25,16,1.87904,-5.73022e-06
26,16,1.9063,-5.77775e-06
27,16,1.93376,-5.81044e-06
28,16,1.96143,-5.82829e-06
29,16,1.98928,-5.83131e-06
30,16,2.01732,-5.81955e-06
31,16,2.04552,-5.79307e-06
32,16,2.07388,-5.75199e-06
33,16,2.10239,-5.69645e-06
34,16,2.13104,-5.62663e-06
35,16,2.15981,-5.54276e-06
36,16,2.18868,-5.4451e-06
37,16,2.21766,-5.33397e-06
38,16,2.24672,-5.20974e-06
39,16,2.27585,-5.0728e-06
40,16,2.30503,-4.92364e-06
41,16,2.33426,-4.76277e-06
42,16,2.36351,-4.59077e-06
43,16,2.39277,-4.40828e-06
44,16,2.42203,-4.216e-06
45,16,2.45126,-4.01468e-06
46,16,2.48046,-3.80517e-06
47,16,2.5096,-3.58835e-06
48,16,2.53866,-3.3652e-06
49,16,2.56764,-3.13673e-06
50,16,2.59651,-2.90407e-06
51,16,2.62525,-2.66839e-06
52,16,2.65384,-2.43094e-06
53,16,2.68227,-2.19305e-06
54,16,2.71052,-1.95612e-06
55,16,2.73856,-1.72164e-06
56,16,2.76639,-1.49114e-06
57,16,2.79397,-1.26627e-06
58,16,2.8213,-1.0487e-06
59,16,2.84834,-8.40212e-07
60,16,2.87508,-6.42631e-07
61,16,2.9015,-4.57849e-07
62,16,2.92759,-2.87812e-07
63,16,2.95331,-1.34516e-07
1,17,1.32478,-4.02167e-07
2,17,1.34564,-7.91344e-07
3,17,1.36681,-1.16749e-06
4,17,1.3883,-1.53058e-06
5,17,1.41011,-1.88054e-06
6,17,1.43224,-2.21734e-06
7,17,1.45467,-2.54089e-06
8,17,1.47742,-2.85113e-06
9,17,1.50048,-3.14797e-06
10,17,1.52385,-3.4313e-06
11,17,1.54752,-3.70102e-06
12,17,1.57149,-3.95701e-06
13,17,1.59577,-4.19913e-06
14,17,1.62033,-4.42726e-06
15,17,1.64519,-4.64126e-06
16,17,1.67034,-4.84097e-06
17,17,1.69577,-5.02626e-06
18,17,1.72147,-5.19698e-06
19,17,1.74745,-5.35299e-06
20,17,1.77369,-5.49415e-06
21,17,1.80019,-5.62032e-06
22,17,1.82694,-5.73139e-06
23,17,1.85394,-5.82726e-06
24,17,1.88117,-5.90781e-06
25,17,1.90863,-5.97299e-06
26,17,1.93632,-6.02272e-06
27,17,1.96422,-6.05698e-06
28,17,1.99232,-6.07576e-06
29,17,2.02061,-6.07907e-06
30,17,2.04909,-6.06696e-06
31,17,2.07773,-6.03951e-06
32,17,2.10654,-5.99684e-06
33,17,2.1355,-5.9391e-06
34,17,2.1646,-5.86648e-06
35,17,2.19382,-5.77922e-06
36,17,2.22315,-5.67761e-06
37,17,2.25258,-5.56197e-06
38,17,2.2821,-5.43268e-06
39,17,2.31169,-5.29017e-06
40,17,2.34133,-5.13494e-06
41,17,2.37102,-4.96753e-06
42,17,2.40073,-4.78855e-06
43,17,2.43045,-4.59865e-06
44,17,2.46017,-4.39857e-06
45,17,2.48986,-4.1891e-06
46,17,2.51952,-3.9711e-06
47,17,2.54912,-3.74551e-06
48,17,2.57864,-3.51333e-06
49,17,2.60807,-3.27562e-06
50,17,2.63739,-3.03354e-06
51,17,2.66659,-2.78829e-06
52,17,2.69563,-2.54117e-06
53,17,2.72451,-2.29356e-06
54,17,2.7532,-2.04688e-06
55,17,2.78169,-1.80267e-06
56,17,2.80995,-1.5625e-06
57,17,2.83797,-1.32804e-06
58,17,2.86572,-1.10102e-06
59,17,2.89319,-8.83233e-07
60,17,2.92036,-6.7655e-07
61,17,2.9472,-4.82886e-07
62,17,2.97369,-3.04218e-07
63,17,2.99982,-1.42568e-07
1,18,1.34565,-4.16492e-07
2,18,1.36683,-8.19758e-07
3,18,1.38834,-1.20973e-06
4,18,1.41017,-1.58633e-06
5,18,1.43232,-1.94949e-06
6,18,1.45479,-2.29911e-06
7,18,1.47758,-2.63512e-06
8,18,1.50069,-2.95739e-06
9,18,1.52411,-3.26583e-06
10,18,1.54784,-3.5603e-06
11,18,1.57189,-3.84069e-06
12,18,1.59624,-4.10685e-06
13,18,1.62089,-4.35864e-06
14,18,1.64585,-4.59591e-06
15,18,1.6711,-4.8185e-06
16,18,1.69664,-5.02626e-06
17,18,1.72247,-5.21903e-06
18,18,1.74858,-5.39666e-06
19,18,1.77496,-5.559e-06
20,18,1.80162,-5.70589e-06
21,18,1.82854,-5.83721e-06
22,18,1.85571,-5.95282e-06
23,18,1.88313,-6.05262e-06
24,18,1.91079,-6.13651e-06
25,18,1.93869,-6.2044e-06
26,18,1.96681,-6.25624e-06
27,18,1.99515,-6.29199e-06
28,18,2.02369,-6.31165e-06
29,18,2.05243,-6.31524e-06
30,18,2.08135,-6.30281e-06
31,18,2.11045,-6.27444e-06
32,18,2.13971,-6.23025e-06
33,18,2.16913,-6.17042e-06
34,18,2.19868,-6.09513e-06
35,18,2.22836,-6.00465e-06
36,18,2.25816,-5.89926e-06
37,18,2.28805,-5.77932e-06
38,18,2.31804,-5.64522e-06
39,18,2.34809,-5.49741e-06
40,18,2.3782,-5.3364e-06
41,18,2.40836,-5.16275e-06
42,18,2.43854,-4.97711e-06
43,18,2.46873,-4.78015e-06
44,18,2.49891,-4.57264e-06
45,18,2.52907,-4.3554e-06
46,18,2.5592,-4.12932e-06
47,18,2.58926,-3.89537e-06
48,18,2.61925,-3.65458e-06
49,18,2.64914,-3.40806e-06
50,18,2.67893,-3.15698e-06
51,18,2.70858,-2.90261e-06
52,18,2.73808,-2.64628e-06
53,18,2.76742,-2.38938e-06
54,18,2.79656,-2.13341e-06
55,18,2.8255,-1.8799e-06
56,18,2.8542,-1.63049e-06
57,18,2.88266,-1.38688e-06
58,18,2.91085,-1.15083e-06
59,18,2.93875,-9.24178e-07
60,18,2.96635,-7.0881e-07
61,18,2.99361,-5.06681e-07
62,18,3.02052,-3.19795e-07
63,18,3.04706,-1.50204e-07
1,19,1.36684,-4.30162e-07
2,19,1.38835,-8.46862e-07
3,19,1.4102,-1.25e-06
4,19,1.43237,-1.63948e-06
5,19,1.45487,-2.0152e-06
6,19,1.4777,-2.37703e-06
7,19,1.50085,-2.72488e-06
8,19,1.52432,-3.0586e-06
9,19,1.54811,-3.37807e-06
10,19,1.57222,-3.68315e-06
11,19,1.59664,-3.97368e-06
12,19,1.62138,-4.24952e-06
13,19,1.64642,-4.51049e-06
14,19,1.67177,-4.75645e-06
15,19,1.69742,-4.98722e-06
16,19,1.72336,-5.20263e-06
17,19,1.74959,-5.40252e-06
18,19,1.77612,-5.58673e-06
19,19,1.80292,-5.75508e-06
20,19,1.82999,-5.90743e-06
21,19,1.85733,-6.04364e-06
22,19,1.88493,-6.16358e-06
23,19,1.91279,-6.26712e-06
24,19,1.94089,-6.35417e-06
25,19,1.96922,-6.42464e-06
26,19,1.99779,-6.47849e-06
27,19,2.02657,-6.51566e-06
28,19,2.05556,-6.53616e-06
29,19,2.08475,-6.54001e-06
30,19,2.11413,-6.52726e-06
31,19,2.14369,-6.49801e-06
32,19,2.17341,-6.45239e-06
33,19,2.20329,-6.39056e-06
34,19,2.23331,-6.31273e-06
35,19,2.26346,-6.21918e-06
36,19,2.29372,-6.1102e-06
37,19,2.32409,-5.98617e-06
38,19,2.35454,-5.84748e-06
39,19,2.38507,-5.69462e-06
40,19,2.41565,-5.5281e-06
41,19,2.44628,-5.34852e-06
42,19,2.47694,-5.15654e-06
43,19,2.5076,-4.95286e-06
44,19,2.53826,-4.73828e-06
45,19,2.5689,-4.51363e-06
46,19,2.5995,-4.27986e-06
47,19,2.63003,-4.03795e-06
48,19,2.6605,-3.78896e-06
49,19,2.69086,-3.53404e-06
50,19,2.72111,-3.27441e-06
51,19,2.75123,-3.01134e-06
52,19,2.7812,-2.74622e-06
53,19,2.811,-2.48048e-06
54,19,2.8406,-2.21564e-06
55,19,2.86999,-1.95329e-06
56,19,2.89915,-1.69508e-06
57,19,2.92806,-1.44275e-06
58,19,2.95669,-1.1981e-06
59,19,2.98503,-9.63002e-07
60,19,3.01306,-7.39373e-07
61,19,3.04075,-5.29201e-07
62,19,3.06808,-3.3452e-07
63,19,3.09504,-1.57412e-07
1,20,1.38836,-4.43195e-07
2,20,1.41022,-8.72691e-07
3,20,1.43241,-1.28837e-06
4,20,1.45493,-1.69009e-06
5,20,1.47778,-2.07775e-06
6,20,1.50097,-2.45119e-06
7,20,1.52448,-2.81028e-06
8,20,1.54832,-3.15488e-06
9,20,1.57249,-3.48483e-06
10,20,1.59698,-3.79996e-06
11,20,1.62179,-4.10013e-06
12,20,1.64691,-4.38515e-06
13,20,1.67235,-4.65485e-06
14,20,1.69809,-4.90905e-06
15,20,1.72415,-5.14758e-06
16,20,1.7505,-5.37025e-06
17,20,1.77715,-5.5769e-06
18,20,1.80409,-5.76733e-06
19,20,1.83131,-5.9414e-06
20,20,1.85881,-6.09893e-06
21,20,1.88658,-6.23978e-06
22,20,1.91462,-6.36381e-06
23,20,1.94291,-6.4709e-06
24,20,1.97145,-6.56095e-06
25,20,2.00023,-6.63388e-06
26,20,2.02925,-6.68961e-06
27,20,2.05848,-6.72813e-06
28,20,2.08793,-6.74942e-06
29,20,2.11758,-6.75352e-06
30,20,2.14742,-6.74047e-06
31,20,2.17745,-6.71038e-06
32,20,2.20764,-6.66337e-06
33,20,2.23798,-6.59964e-06
34,20,2.26848,-6.5194e-06
35,20,2.2991,-6.42293e-06
36,20,2.32984,-6.31054e-06
37,20,2.36069,-6.1826e-06
38,20,2.39162,-6.03956e-06
39,20,2.42263,-5.88188e-06
40,20,2.45369,-5.71013e-06
41,20,2.48481,-5.52491e-06
42,20,2.51594,-5.3269e-06
43,20,2.54709,-5.11683e-06
44,20,2.57824,-4.89552e-06
45,20,2.60935,-4.66384e-06
46,20,2.64043,-4.42274e-06
47,20,2.67145,-4.17325e-06
48,20,2.70239,-3.91647e-06
49,20,2.73324,-3.65356e-06
50,20,2.76397,-3.38579e-06
51,20,2.79456,-3.11446e-06
52,20,2.825,-2.84098e-06
53,20,2.85526,-2.56683e-06
54,20,2.88533,-2.29355e-06
55,20,2.91519,-2.02278e-06
56,20,2.94481,-1.7562e-06
57,20,2.97417,-1.49559e-06
58,20,3.00325,-1.24278e-06
59,20,3.03204,-9.99663e-07
60,20,3.06051,-7.68204e-07
61,20,3.08863,-5.50419e-07
62,20,3.1164,-3.48374e-07
63,20,3.14378,-1.64183e-07
1,21,1.41022,-4.55605e-07
2,21,1.43243,-8.97274e-07
3,21,1.45497,-1.32486e-06
4,21,1.47784,-1.73822e-06
5,21,1.50106,-2.13721e-06
6,21,1.52461,-2.52166e-06
7,21,1.54849,-2.89142e-06
8,21,1.57271,-3.24632e-06
9,21,1.59725,-3.5862e-06
10,21,1.62213,-3.91086e-06
11,21,1.64732,-4.22015e-06
12,21,1.67284,-4.51386e-06
13,21,1.69868,-4.79182e-06
14,21,1.72484,-5.05383e-06
15,21,1.7513,-5.2997e-06
16,21,1.77807,-5.52924e-06
17,21,1.80513,-5.74228e-06
18,21,1.8325,-5.93861e-06
19,21,1.86015,-6.11808e-06
20,21,1.88808,-6.2805e-06
21,21,1.91629,-6.42574e-06
22,21,1.94477,-6.55365e-06
23,21,1.9735,-6.66409e-06
24,21,2.0025,-6.75698e-06
25,21,2.03173,-6.83221e-06
26,21,2.0612,-6.88974e-06
27,21,2.0909,-6.92952e-06
28,21,2.12081,-6.95155e-06
29,21,2.15093,-6.95587e-06
30,21,2.18124,-6.94252e-06
31,21,2.21173,-6.91162e-06
32,21,2.2424,-6.86331e-06
33,21,2.27323,-6.79777e-06
34,21,2.3042,-6.71523e-06
35,21,2.33531,-6.61597e-06
36,21,2.36653,-6.50033e-06
37,21,2.39786,-6.3687e-06
38,21,2.42928,-6.22151e-06
39,21,2.46078,-6.05927e-06
40,21,2.49233,-5.88254e-06
41,21,2.52394,-5.69197e-06
42,21,2.55556,-5.48822e-06
43,21,2.5872,-5.27209e-06
44,21,2.61884,-5.04438e-06
45,21,2.65045,-4.80602e-06
46,21,2.68201,-4.55797e-06
47,21,2.71352,-4.30129e-06
48,21,2.74495,-4.0371e-06
49,21,2.77628,-3.76661e-06
50,21,2.80749,-3.4911e-06
51,21,2.83857,-3.21192e-06
52,21,2.86949,-2.93051e-06
53,21,2.90023,-2.64837e-06
54,21,2.93077,-2.36709e-06
55,21,2.96109,-2.08833e-06
56,21,2.99118,-1.81382e-06
57,21,3.021,-1.54536e-06
58,21,3.05055,-1.28482e-06
59,21,3.07979,-1.03412e-06
60,21,3.1087,-7.95271e-07
61,21,3.13727,-5.7031e-07
62,21,3.16548,-3.6134e-07
63,21,3.19329,-1.70507e-07
1,22,1.43243,-4.67402e-07
2,22,1.45498,-9.20631e-07
3,22,1.47788,-1.35952e-06
4,22,1.50111,-1.78391e-06
5,22,1.52469,-2.19363e-06
6,22,1.54862,-2.5885e-06
7,22,1.57288,-2.96835e-06
8,22,1.59747,-3.333e-06
9,22,1.62241,-3.68226e-06
10,22,1.64767,-4.01593e-06
11,22,1.67327,-4.33383e-06
12,22,1.69919,-4.63575e-06
13,22,1.72543,-4.9215e-06
14,22,1.752,-5.19087e-06
15,22,1.77888,-5.44367e-06
16,22,1.80607,-5.6797e-06
17,22,1.83356,-5.89875e-06
18,22,1.86135,-6.10065e-06
19,22,1.88944,-6.28521e-06
20,22,1.91781,-6.45225e-06
21,22,1.94647,-6.60162e-06
22,22,1.97539,-6.73317e-06
23,22,2.00458,-6.84678e-06
24,22,2.03403,-6.94233e-06
25,22,2.06373,-7.01973e-06
26,22,2.09366,-7.07894e-06
27,22,2.12382,-7.1199e-06
28,22,2.15421,-7.14262e-06
29,22,2.1848,-7.14713e-06
30,22,2.21559,-7.13349e-06
31,22,2.24656,-7.10182e-06
32,22,2.27771,-7.05225e-06
33,22,2.30903,-6.98499e-06
34,22,2.34049,-6.90026e-06
35,22,2.37208,-6.79836e-06
36,22,2.4038,-6.67964e-06
37,22,2.43562,-6.54449e-06
38,22,2.46754,-6.39337e-06
39,22,2.49953,-6.2268e-06
40,22,2.53158,-6.04536e-06
41,22,2.56368,-5.8497e-06
42,22,2.59581,-5.64053e-06
43,22,2.62795,-5.41863e-06
44,22,2.66008,-5.18487e-06
45,22,2.69218,-4.94017e-06
46,22,2.72425,-4.68553e-06
47,22,2.75625,-4.42203e-06
48,22,2.78818,-4.15082e-06
49,22,2.82,-3.87315e-06
50,22,2.8517,-3.59031e-06
51,22,2.88327,-3.30369e-06
52,22,2.91467,-3.01476e-06
53,22,2.9459,-2.72507e-06
54,22,2.97692,-2.43622e-06
55,22,3.00772,-2.1499e-06
56,22,3.03828,-1.86789e-06
57,22,3.06858,-1.59202e-06
58,22,3.09859,-1.32418e-06
59,22,3.12829,-1.06635e-06
60,22,3.15766,-8.20542e-07
61,22,3.18668,-5.88849e-07
62,22,3.21532,-3.734e-07
63,22,3.24358,-1.76377e-07
1,23,1.45499,-4.78594e-07
2,23,1.4779,-9.42778e-07
3,23,1.50115,-1.39237e-06
4,23,1.52475,-1.82719e-06
5,23,1.54871,-2.24705e-06
6,23,1.573,-2.65176e-06
7,23,1.59764,-3.04113e-06
8,23,1.62263,-3.41497e-06
9,23,1.64795,-3.77306e-06
10,23,1.67362,-4.11522e-06
11,23,1.69962,-4.44122e-06
12,23,1.72595,-4.75087e-06
13,23,1.7526,-5.04395e-06
14,23,1.77959,-5.32025e-06
15,23,1.80689,-5.57956e-06
16,23,1.83451,-5.82168e-06
17,23,1.86243,-6.0464e-06
18,23,1.89066,-6.25352e-06
19,23,1.91919,-6.44285e-06
20,23,1.94801,-6.61423e-06
21,23,1.97712,-6.76747e-06
22,23,2.0065,-6.90244e-06
23,23,2.03615,-7.01901e-06
24,23,2.06606,-7.11705e-06
25,23,2.09622,-7.19649e-06
26,23,2.12663,-7.25725e-06
27,23,2.15727,-7.29931e-06
28,23,2.18813,-7.32266e-06
29,23,2.2192,-7.32734e-06
30,23,2.25048,-7.31342e-06
31,23,2.28194,-7.281e-06
32,23,2.31358,-7.23023e-06
33,23,2.34539,-7.16132e-06
34,23,2.37734,-7.07452e-06
35,23,2.40944,-6.97012e-06
36,23,2.44165,-6.84847e-06
37,23,2.47398,-6.70999e-06
38,23,2.5064,-6.55515e-06
39,23,2.53889,-6.38448e-06
40,23,2.57145,-6.19857e-06
41,23,2.60405,-5.9981e-06
42,23,2.63669,-5.78379e-06
43,23,2.66933,-5.55645e-06
44,23,2.70197,-5.31696e-06
45,23,2.73458,-5.06626e-06
46,23,2.76715,-4.80539e-06
47,23,2.79966,-4.53544e-06
48,23,2.83208,-4.25761e-06
49,23,2.86441,-3.97314e-06
50,23,2.89661,-3.68337e-06
51,23,2.92867,-3.38973e-06
52,23,2.96057,-3.0937e-06
53,23,2.99229,-2.79687e-06
54,23,3.0238,-2.50087e-06
55,23,3.05509,-2.20744e-06
56,23,3.08613,-1.91836e-06
57,23,3.1169,-1.63552e-06
58,23,3.14738,-1.36083e-06
59,23,3.17755,-1.0963e-06
60,23,3.20738,-8.43988e-07
61,23,3.23686,-6.06013e-07
62,23,3.26596,-3.8454e-07
63,23,3.29465,-1.81784e-07
1,24,1.4779,-4.89187e-07
2,24,1.50117,-9.63725e-07
3,24,1.52479,-1.42342e-06
4,24,1.54877,-1.86807e-06
5,24,1.57309,-2.29749e-06
6,24,1.59777,-2.71146e-06
7,24,1.6228,-3.10978e-06
8,24,1.64818,-3.49225e-06
9,24,1.67391,-3.85864e-06
10,24,1.69997,-4.20876e-06
11,24,1.72638,-4.54237e-06
12,24,1.75313,-4.85926e-06
13,24,1.7802,-5.15921e-06
14,24,1.80761,-5.44199e-06
15,24,1.83534,-5.7074e-06
16,24,1.8634,-5.95521e-06
17,24,1.89176,-6.18522e-06
18,24,1.92044,-6.39723e-06
19,24,1.94942,-6.59103e-06
20,24,1.97869,-6.76645e-06
21,24,2.00825,-6.92332e-06
22,24,2.0381,-7.06148e-06
23,24,2.06821,-7.18079e-06
24,24,2.0986,-7.28116e-06
25,24,2.12924,-7.36248e-06
26,24,2.16012,-7.42469e-06
27,24,2.19124,-7.46776e-06
28,24,2.22259,-7.49169e-06
29,24,2.25415,-7.49651e-06
30,24,2.28592,-7.48229e-06
31,24,2.31788,-7.44915e-06
32,24,2.35002,-7.39724e-06
33,24,2.38232,-7.32677e-06
34,24,2.41478,-7.23799e-06
35,24,2.44738,-7.13122e-06
36,24,2.4801,-7.00681e-06
37,24,2.51294,-6.86518e-06
38,24,2.54587,-6.70682e-06
39,24,2.57887,-6.53228e-06
40,24,2.61194,-6.34216e-06
41,24,2.64506,-6.13714e-06
42,24,2.67821,-5.91799e-06
43,24,2.71137,-5.68551e-06
44,24,2.74452,-5.44061e-06
45,24,2.77764,-5.18426e-06
46,24,2.81073,-4.91751e-06
47,24,2.84374,-4.64149e-06
48,24,2.87668,-4.35739e-06
49,24,2.90951,-4.06652e-06
50,24,2.94223,-3.77023e-06
51,24,2.97479,-3.46997e-06
52,24,3.00719,-3.16727e-06
53,24,3.03941,-2.86372e-06
54,24,3.07142,-2.56101e-06
55,24,3.1032,-2.26089e-06
56,24,3.13473,-1.96519e-06
57,24,3.16599,-1.67581e-06
58,24,3.19695,-1.39471e-06
59,24,3.22759,-1.12394e-06
60,24,3.25789,-8.65578e-07
61,24,3.28783,-6.21779e-07
62,24,3.31739,-3.94743e-07
63,24,3.34654,-1.8672e-07
1,25,1.50118,-4.99182e-07
2,25,1.52481,-9.83475e-07
3,25,1.5488,-1.45267e-06
4,25,1.57315,-1.90657e-06
5,25,1.59787,-2.34495e-06
6,25,1.62293,-2.7676e-06
7,25,1.64836,-3.17431e-06
8,25,1.67414,-3.56485e-06
9,25,1.70027,-3.93901e-06
10,25,1.72674,-4.29656e-06
11,25,1.75357,-4.63727e-06
12,25,1.78073,-4.96092e-06
13,25,1.80824,-5.26727e-06
14,25,1.83608,-5.5561e-06
15,25,1.86425,-5.82719e-06
16,25,1.89274,-6.0803e-06
17,25,1.92155,-6.31524e-06
18,25,1.95068,-6.53178e-06
19,25,1.98012,-6.72973e-06
20,25,2.00985,-6.90891e-06
21,25,2.03988,-7.06913e-06
22,25,2.07019,-7.21025e-06
23,25,2.10078,-7.33212e-06
24,25,2.13165,-7.43463e-06
25,25,2.16277,-7.51769e-06
26,25,2.19414,-7.58123e-06
27,25,2.22575,-7.62522e-06
28,25,2.25759,-7.64966e-06
29,25,2.28965,-7.65459e-06
30,25,2.32192,-7.64007e-06
31,25,2.35438,-7.60623e-06
32,25,2.38702,-7.55323e-06
33,25,2.41984,-7.48128e-06
34,25,2.45281,-7.39064e-06
35,25,2.48592,-7.28162e-06
36,25,2.51916,-7.1546e-06
37,25,2.55251,-7.01e-06
38,25,2.58596,-6.84833e-06
39,25,2.61948,-6.67014e-06
40,25,2.65308,-6.47605e-06
41,25,2.68672,-6.26677e-06
42,25,2.72038,-6.04305e-06
43,25,2.75406,-5.80575e-06
44,25,2.78774,-5.55576e-06
45,25,2.82138,-5.2941e-06
46,25,2.85499,-5.02182e-06
47,25,2.88853,-4.74009e-06
48,25,2.92198,-4.45012e-06
49,25,2.95533,-4.15324e-06
50,25,2.98856,-3.85083e-06
51,25,3.02164,-3.54436e-06
52,25,3.05455,-3.2354e-06
53,25,3.08727,-2.92556e-06
54,25,3.11979,-2.61657e-06
55,25,3.15207,-2.3102e-06
56,25,3.18409,-2.00831e-06
57,25,3.21584,-1.71285e-06
58,25,3.24729,-1.4258e-06
59,25,3.27842,-1.14924e-06
60,25,3.3092,-8.85283e-07
61,25,3.33961,-6.36123e-07
62,25,3.36963,-4.03993e-07
63,25,3.39924,-1.91177e-07
1,26,1.52482,-5.08578e-07
2,26,1.54882,-1.00203e-06
3,26,1.57319,-1.48013e-06
4,26,1.59793,-1.94268e-06
5,26,1.62303,-2.38943e-06
6,26,1.64849,-2.82019e-06
7,26,1.67432,-3.23471e-06
8,26,1.7005,-3.63278e-06
9,26,1.72704,-4.01416e-06
10,26,1.75394,-4.37861e-06
11,26,1.78118,-4.72592e-06
12,26,1.80878,-5.05583e-06
13,26,1.83671,-5.36812e-06
14,26,1.86499,-5.66255e-06
15,26,1.8936,-5.93889e-06
16,26,1.92255,-6.19691e-06
17,26,1.95181,-6.4364e-06
18,26,1.9814,-6.65713e-06
19,26,2.0113,-6.85892e-06
20,26,2.0415,-7.04155e-06
21,26,2.072,-7.20487e-06
22,26,2.10279,-7.34871e-06
23,26,2.13387,-7.47292e-06
24,26,2.16521,-7.5774e-06
25,26,2.19682,-7.66205e-06
26,26,2.22869,-7.7268e-06
27,26,2.2608,-7.77162e-06
28,26,2.29314,-7.79651e-06
29,26,2.32571,-7.80151e-06
30,26,2.35848,-7.78669e-06
31,26,2.39146,-7.75218e-06
32,26,2.42461,-7.69814e-06
33,26,2.45794,-7.62478e-06
34,26,2.49143,-7.53238e-06
35,26,2.52507,-7.42125e-06
36,26,2.55883,-7.29177e-06
37,26,2.59271,-7.14439e-06
38,26,2.62668,-6.9796e-06
39,26,2.66074,-6.79799e-06
40,26,2.69486,-6.60019e-06
41,26,2.72902,-6.3869e-06
42,26,2.76322,-6.15891e-06
43,26,2.79743,-5.91707e-06
44,26,2.83164,-5.66233e-06
45,26,2.86582,-5.39569e-06
46,26,2.89995,-5.11825e-06
47,26,2.93401,-4.83117e-06
48,26,2.968,-4.53571e-06
49,26,3.00187,-4.23321e-06
50,26,3.03562,-3.92508e-06
51,26,3.06922,-3.61282e-06
52,26,3.10265,-3.29801e-06
53,26,3.13589,-2.98232e-06
54,26,3.16892,-2.66747e-06
55,26,3.20171,-2.3553e-06
56,26,3.23424,-2.04768e-06
57,26,3.26648,-1.74658e-06
58,26,3.29843,-1.45404e-06
59,26,3.33004,-1.17215e-06
60,26,3.36131,-9.03069e-07
61,26,3.3922,-6.49021e-07
62,26,3.4227,-4.12274e-07
63,26,3.45277,-1.95146e-07
1,27,1.54883,-5.17374e-07
2,27,1.57321,-1.01938e-06
3,27,1.59797,-1.50579e-06
4,27,1.62309,-1.97638e-06
5,27,1.64859,-2.43092e-06
6,27,1.67445,-2.8692e-06
7,27,1.70068,-3.29096e-06
8,27,1.72728,-3.69599e-06
9,27,1.75424,-4.08404e-06
10,27,1.78156,-4.45487e-06
11,27,1.80923,-4.80826e-06
12,27,1.83726,-5.14394e-06
13,27,1.86564,-5.46169e-06
14,27,1.89436,-5.76127e-06
15,27,1.92342,-6.04244e-06
16,27,1.95282,-6.30497e-06
17,27,1.98255,-6.54863e-06
18,27,2.0126,-6.77321e-06
19,27,2.04297,-6.9785e-06
20,27,2.07365,-7.16431e-06
21,27,2.10463,-7.33045e-06
22,27,2.13591,-7.47677e-06
23,27,2.16747,-7.60312e-06
24,27,2.19931,-7.70938e-06
25,27,2.23142,-7.79546e-06
26,27,2.26379,-7.8613e-06
27,27,2.2964,-7.90686e-06
28,27,2.32925,-7.93213e-06
29,27,2.36233,-7.93717e-06
30,27,2.39562,-7.92205e-06
31,27,2.42912,-7.88688e-06
32,27,2.4628,-7.83185e-06
33,27,2.49665,-7.75716e-06
34,27,2.53067,-7.6631e-06
35,27,2.56483,-7.54998e-06
36,27,2.59912,-7.41821e-06
37,27,2.63353,-7.26822e-06
38,27,2.66804,-7.10053e-06
39,27,2.70264,-6.91572e-06
40,27,2.73729,-6.71444e-06
41,27,2.772,-6.49742e-06
42,27,2.80674,-6.26544e-06
43,27,2.84149,-6.01939e-06
44,27,2.87623,-5.76021e-06
45,27,2.91095,-5.48894e-06
46,27,2.94562,-5.20668e-06
47,27,2.98022,-4.91463e-06
48,27,3.01474,-4.61406e-06
49,27,3.04915,-4.30634e-06
50,27,3.08343,-3.99289e-06
51,27,3.11756,-3.67526e-06
52,27,3.15151,-3.35504e-06
53,27,3.18528,-3.03392e-06
54,27,3.21882,-2.71366e-06
55,27,3.25213,-2.39613e-06
56,27,3.28517,-2.08323e-06
57,27,3.31792,-1.77696e-06
58,27,3.35037,-1.47938e-06
59,27,3.38249,-1.19263e-06
60,27,3.41424,-9.18904e-07
61,27,3.44562,-6.60447e-07
62,27,3.47659,-4.19567e-07
63,27,3.50714,-1.98619e-07
1,28,1.57322,-5.25562e-07
2,28,1.59799,-1.03551e-06
3,28,1.62313,-1.52962e-06
4,28,1.64865,-2.00765e-06
5,28,1.67455,-2.46939e-06
6,28,1.70082,-2.91459e-06
7,28,1.72747,-3.34302e-06
8,28,1.75448,-3.75444e-06
9,28,1.78186,-4.14861e-06
10,28,1.80961,-4.52528e-06
11,28,1.83772,-4.88423e-06
12,28,1.86619,-5.22519e-06
13,28,1.89502,-5.54792e-06
14,28,1.92419,-5.85219e-06
15,28,1.95371,-6.13776e-06
16,28,1.98357,-6.40438e-06
17,28,2.01377,-6.65184e-06
18,28,2.0443,-6.8799e-06
19,28,2.07514,-7.08837e-06
20,28,2.1063,-7.27705e-06
21,28,2.13777,-7.44574e-06
22,28,2.16954,-7.5943e-06
23,28,2.2016,-7.72257e-06
24,28,2.23394,-7.83043e-06
25,28,2.26656,-7.9178e-06
26,28,2.29944,-7.98459e-06
27,28,2.33256,-8.03079e-06
28,28,2.36593,-8.05639e-06
29,28,2.39953,-8.06143e-06
30,28,2.43335,-8.04598e-06
31,28,2.46737,-8.01019e-06
32,28,2.50158,-7.95421e-06
33,28,2.53597,-7.87827e-06
34,28,2.57052,-7.78265e-06
35,28,2.60522,-7.66769e-06
36,28,2.64006,-7.53377e-06
37,28,2.67501,-7.38135e-06
38,28,2.71006,-7.21096e-06
39,28,2.7452,-7.02318e-06
40,28,2.7804,-6.81868e-06
41,28,2.81565,-6.59819e-06
42,28,2.85094,-6.36252e-06
43,28,2.88623,-6.11257e-06
44,28,2.92152,-5.84928e-06
45,28,2.95679,-5.57372e-06
46,28,2.992,-5.28701e-06
47,28,3.02715,-4.99036e-06
48,28,3.06221,-4.68507e-06
49,28,3.09716,-4.37252e-06
50,28,3.13198,-4.05417e-06
51,28,3.16665,-3.73158e-06
52,28,3.20114,-3.40637e-06
53,28,3.23544,-3.08027e-06
54,28,3.26951,-2.75505e-06
55,28,3.30334,-2.43261e-06
56,28,3.3369,-2.11489e-06
57,28,3.37017,-1.80391e-06
58,28,3.40313,-1.50178e-06
59,28,3.43575,-1.21065e-06
60,28,3.46801,-9.32751e-07
61,28,3.49988,-6.70374e-07
62,28,3.53134,-4.25856e-07
63,28,3.56237,-2.01587e-07
1,29,1.59799,-5.33134e-07
2,29,1.62315,-1.05041e-06
3,29,1.64869,-1.5516e-06
4,29,1.67461,-2.03647e-06
5,29,1.70092,-2.50479e-06
6,29,1.7276,-2.95632e-06
7,29,1.75467,-3.39082e-06
8,29,1.78211,-3.80806e-06
9,29,1.80992,-4.20778e-06
10,29,1.83811,-4.58976e-06
11,29,1.86666,-4.95373e-06
12,29,1.89558,-5.29946e-06
13,29,1.92486,-5.6267e-06
14,29,1.95449,-5.93519e-06
15,29,1.98448,-6.22472e-06
16,29,2.01481,-6.49502e-06
17,29,2.04548,-6.74588e-06
18,29,2.07649,-6.97707e-06
19,29,2.10782,-7.18839e-06
20,29,2.13947,-7.37962e-06
21,29,2.17144,-7.55059e-06
22,29,2.20371,-7.70114e-06
23,29,2.23627,-7.83111e-06
24,29,2.26912,-7.94039e-06
25,29,2.30225,-8.02887e-06
26,29,2.33565,-8.0965e-06
27,29,2.3693,-8.14324e-06
28,29,2.40319,-8.16909e-06
29,29,2.43732,-8.1741e-06
30,29,2.47167,-8.15833e-06
31,29,2.50622,-8.12192e-06
32,29,2.54097,-8.06505e-06
33,29,2.5759,-7.98794e-06
34,29,2.611,-7.89087e-06
35,29,2.64625,-7.77418e-06
36,29,2.68163,-7.63828e-06
37,29,2.71713,-7.48361e-06
38,29,2.75274,-7.31073e-06
39,29,2.78843,-7.12021e-06
40,29,2.82418,-6.91275e-06
41,29,2.85999,-6.68907e-06
42,29,2.89583,-6.45e-06
43,29,2.93169,-6.19645e-06
44,29,2.96753,-5.92939e-06
45,29,3.00335,-5.64989e-06
46,29,3.03912,-5.35909e-06
47,29,3.07482,-5.05822e-06
48,29,3.11043,-4.7486e-06
49,29,3.14594,-4.43163e-06
50,29,3.1813,-4.1088e-06
51,29,3.21652,-3.78168e-06
52,29,3.25155,-3.45193e-06
53,29,3.28639,-3.12128e-06
54,29,3.321,-2.79156e-06
55,29,3.35536,-2.46467e-06
56,29,3.38945,-2.14259e-06
57,29,3.42325,-1.82738e-06
58,29,3.45672,-1.52117e-06
59,29,3.48986,-1.22614e-06
60,29,3.52262,-9.44572e-07
61,29,3.555,-6.78773e-07
62,29,3.58695,-4.3112e-07
63,29,3.61847,-2.04039e-07
1,30,1.62316,-5.40079e-07
2,30,1.64871,-1.06406e-06
3,30,1.67465,-1.5717e-06
4,30,1.70099,-2.06278e-06
5,30,1.72771,-2.53706e-06
6,30,1.75481,-2.99431e-06
7,30,1.7823,-3.43429e-06
8,30,1.81017,-3.85675e-06
9,30,1.83843,-4.26147e-06
10,30,1.86706,-4.64818e-06
11,30,1.89606,-5.01665e-06
12,30,1.92543,-5.36663e-06
13,30,1.95517,-5.69787e-06
14,30,1.98527,-6.01013e-06
15,30,2.01573,-6.30316e-06
16,30,2.04654,-6.57672e-06
17,30,2.0777,-6.83059e-06
18,30,2.10919,-7.06454e-06
19,30,2.14101,-7.27835e-06
20,30,2.17317,-7.47184e-06
21,30,2.20563,-7.6448e-06
22,30,2.23841,-7.79709e-06
23,30,2.27149,-7.92854e-06
24,30,2.30486,-8.03904e-06
25,30,2.33851,-8.12849e-06
26,30,2.37243,-8.19682e-06
27,30,2.40661,-8.244e-06
28,30,2.44104,-8.27004e-06
29,30,2.4757,-8.27496e-06
30,30,2.51059,-8.25886e-06
31,30,2.54569,-8.22187e-06
32,30,2.58099,-8.16415e-06
33,30,2.61647,-8.08594e-06
34,30,2.65212,-7.98753e-06
35,30,2.68792,-7.86926e-06
36,30,2.72386,-7.73153e-06
37,30,2.75992,-7.57481e-06
38,30,2.79609,-7.39964e-06
39,30,2.83234,-7.20662e-06
40,30,2.86866,-6.99645e-06
41,30,2.90503,-6.76986e-06
42,30,2.94144,-6.52769e-06
43,30,2.97785,-6.27087e-06
44,30,3.01426,-6.00037e-06
45,30,3.05064,-5.71728e-06
46,30,3.08698,-5.42276e-06
47,30,3.12324,-5.11806e-06
48,30,3.15942,-4.80452e-06
49,30,3.19548,-4.48354e-06
50,30,3.2314,-4.15665e-06
51,30,3.26717,-3.82544e-06
52,30,3.30276,-3.49158e-06
53,30,3.33814,-3.15684e-06
54,30,3.3733,-2.82308e-06
55,30,3.4082,-2.49221e-06
56,30,3.44283,-2.16626e-06
57,30,3.47716,-1.8473e-06
58,30,3.51116,-1.53749e-06
59,30,3.54481,-1.23907e-06
60,30,3.5781,-9.54328e-07
61,30,3.61098,-6.85614e-07
62,30,3.64344,-4.3534e-07
63,30,3.67545,-2.05967e-07
1,31,1.64872,-5.46384e-07
2,31,1.67468,-1.07642e-06
3,31,1.70103,-1.58987e-06
4,31,1.72777,-2.08652e-06
5,31,1.75491,-2.56614e-06
6,31,1.78245,-3.02848e-06
7,31,1.81037,-3.47333e-06
8,31,1.83868,-3.90043e-06
9,31,1.86738,-4.30954e-06
10,31,1.89646,-4.70043e-06
11,31,1.92592,-5.07285e-06
12,31,1.95575,-5.42655e-06
13,31,1.98596,-5.76129e-06
14,31,2.01654,-6.07682e-06
15,31,2.04747,-6.37289e-06
16,31,2.07877,-6.64928e-06
17,31,2.11041,-6.90576e-06
18,31,2.1424,-7.14208e-06
19,31,2.17473,-7.35806e-06
20,31,2.20739,-7.55347e-06
21,31,2.24037,-7.72814e-06
22,31,2.27366,-7.88191e-06
23,31,2.30726,-8.01461e-06
24,31,2.34115,-8.12614e-06
25,31,2.37533,-8.21639e-06
26,31,2.40979,-8.28529e-06
27,31,2.44451,-8.33281e-06
28,31,2.47948,-8.35896e-06
29,31,2.51469,-8.36377e-06
30,31,2.55013,-8.34733e-06
31,31,2.58578,-8.30977e-06
32,31,2.62163,-8.25126e-06
33,31,2.65767,-8.17204e-06
34,31,2.69388,-8.0724e-06
35,31,2.73025,-7.95267e-06
36,31,2.76675,-7.81328e-06
37,31,2.80338,-7.6547e-06
38,31,2.84012,-7.47746e-06
39,31,2.87694,-7.28218e-06
40,31,2.91383,-7.06956e-06
41,31,2.95078,-6.84035e-06
42,31,2.98776,-6.59539e-06
43,31,3.02475,-6.33562e-06
44,31,3.06173,-6.06203e-06
45,31,3.09868,-5.77572e-06
46,31,3.13559,-5.47786e-06
47,31,3.17243,-5.16973e-06
48,31,3.20917,-4.85266e-06
49,31,3.2458,-4.5281e-06
50,31,3.28229,-4.19758e-06
51,31,3.31862,-3.86272e-06
52,31,3.35477,-3.52521e-06
53,31,3.39071,-3.18685e-06
54,31,3.42642,-2.84951e-06
55,31,3.46187,-2.51515e-06
56,31,3.49704,-2.1858e-06
57,31,3.53191,-1.86359e-06
58,31,3.56645,-1.5507e-06
59,31,3.60064,-1.24938e-06
60,31,3.63444,-9.61976e-07
61,31,3.66784,-6.90864e-07
62,31,3.70082,-4.38493e-07
63,31,3.73333,-2.07357e-07
1,32,1.67468,-5.5203e-07
2,32,1.70105,-1.08746e-06
3,32,1.72781,-1.60607e-06
4,32,1.75498,-2.10764e-06
5,32,1.78255,-2.59194e-06
6,32,1.81051,-3.05875e-06
7,32,1.83888,-3.50782e-06
8,32,1.86763,-3.93894e-06
9,32,1.89678,-4.35186e-06
10,32,1.92632,-4.74634e-06
11,32,1.95625,-5.12214e-06
12,32,1.98655,-5.47902e-06
13,32,2.01724,-5.81674e-06
14,32,2.04829,-6.13505e-06
15,32,2.07972,-6.43371e-06
16,32,2.1115,-6.71248e-06
17,32,2.14365,-6.97114e-06
18,32,2.17614,-7.20947e-06
19,32,2.20898,-7.42724e-06
20,32,2.24215,-7.62426e-06
21,32,2.27565,-7.80034e-06
22,32,2.30947,-7.95532e-06
23,32,2.34359,-8.08905e-06
24,32,2.37802,-8.2014e-06
25,32,2.41274,-8.29228e-06
26,32,2.44774,-8.36162e-06
27,32,2.483,-8.40938e-06
28,32,2.51852,-8.43557e-06
29,32,2.55429,-8.44023e-06
30,32,2.59029,-8.42344e-06
31,32,2.6265,-8.38534e-06
32,32,2.66292,-8.32609e-06
33,32,2.69952,-8.24594e-06
34,32,2.73631,-8.14518e-06
35,32,2.77324,-8.02415e-06
36,32,2.81032,-7.88327e-06
37,32,2.84753,-7.72301e-06
38,32,2.88484,-7.54393e-06
39,32,2.92225,-7.34664e-06
40,32,2.95972,-7.13184e-06
41,32,2.99725,-6.90029e-06
42,32,3.03481,-6.65286e-06
43,32,3.07238,-6.39048e-06
44,32,3.10995,-6.11415e-06
45,32,3.14748,-5.82499e-06
46,32,3.18497,-5.52419e-06
47,32,3.22238,-5.21302e-06
48,32,3.25971,-4.89285e-06
49,32,3.29691,-4.56514e-06
50,32,3.33398,-4.23144e-06
51,32,3.37088,-3.89338e-06
52,32,3.4076,-3.55269e-06
53,32,3.4441,-3.21118e-06
54,32,3.48037,-2.87075e-06
55,32,3.51639,-2.53338e-06
56,32,3.55211,-2.20114e-06
57,32,3.58753,-1.87618e-06
58,32,3.62262,-1.5607e-06
59,32,3.65734,-1.25701e-06
60,32,3.69168,-9.6747e-07
61,32,3.7256,-6.94491e-07
62,32,3.7591,-4.40557e-07
63,32,3.79212,-2.082e-07
1,33,1.70106,-5.57e-07
2,33,1.72784,-1.09715e-06
3,33,1.75502,-1.62024e-06
4,33,1.78262,-2.12605e-06
5,33,1.81062,-2.61437e-06
6,33,1.83903,-3.08498e-06
7,33,1.86784,-3.53764e-06
8,33,1.89705,-3.97215e-06
9,33,1.92665,-4.38825e-06
10,33,1.95666,-4.78573e-06
11,33,1.98705,-5.16434e-06
12,33,2.01784,-5.52384e-06
13,33,2.049,-5.86401e-06
14,33,2.08055,-6.18458e-06
15,33,2.11247,-6.48534e-06
16,33,2.14476,-6.76605e-06
17,33,2.17741,-7.02647e-06
18,33,2.21041,-7.2664e-06
19,33,2.24376,-7.4856e-06
20,33,2.27746,-7.68389e-06
21,33,2.31149,-7.86109e-06
22,33,2.34584,-8.01701e-06
23,33,2.3805,-8.15153e-06
24,33,2.41547,-8.2645e-06
25,33,2.45074,-8.35584e-06
26,33,2.48628,-8.42548e-06
27,33,2.5221,-8.47338e-06
28,33,2.55818,-8.49954e-06
29,33,2.59451,-8.50401e-06
30,33,2.63108,-8.48686e-06
31,33,2.66786,-8.44824e-06
32,33,2.70485,-8.38831e-06
33,33,2.74204,-8.30732e-06
34,33,2.7794,-8.20556e-06
35,33,2.81692,-8.08337e-06
36,33,2.85458,-7.94117e-06
37,33,2.89237,-7.77945e-06
38,33,2.93027,-7.59875e-06
39,33,2.96826,-7.3997e-06
40,33,3.00633,-7.18301e-06
41,33,3.04445,-6.94944e-06
42,33,3.0826,-6.69985e-06
43,33,3.12076,-6.4352e-06
44,33,3.15892,-6.1565e-06
45,33,3.19705,-5.86488e-06
46,33,3.23513,-5.56152e-06
47,33,3.27313,-5.24774e-06
48,33,3.31104,-4.9249e-06
49,33,3.34883,-4.59448e-06
50,33,3.38648,-4.25805e-06
51,33,3.42397,-3.91726e-06
52,33,3.46126,-3.57387e-06
53,33,3.49834,-3.22969e-06
54,33,3.53518,-2.88666e-06
55,33,3.57176,-2.54679e-06
56,33,3.60805,-2.21217e-06
57,33,3.64403,-1.88497e-06
58,33,3.67966,-1.56744e-06
59,33,3.71493,-1.26191e-06
60,33,3.74981,-9.70762e-07
61,33,3.78427,-6.96457e-07
62,33,3.81829,-4.41508e-07
63,33,3.85184,-2.08484e-07
1,34,1.72784,-5.6127e-07
2,34,1.75504,-1.10544e-06
3,34,1.78266,-1.63231e-06
4,34,1.81069,-2.14167e-06
5,34,1.83913,-2.63332e-06
6,34,1.86799,-3.10705e-06
7,34,1.89725,-3.56264e-06
8,34,1.92692,-3.99987e-06
9,34,1.95699,-4.41853e-06
10,34,1.98747,-4.81839e-06
11,34,2.01834,-5.19921e-06
12,34,2.04961,-5.56076e-06
13,34,2.08127,-5.90282e-06
14,34,2.11331,-6.22515e-06
15,34,2.14573,-6.52751e-06
16,34,2.17853,-6.80968e-06
17,34,2.2117,-7.07144e-06
18,34,2.24522,-7.31255e-06
19,34,2.2791,-7.53281e-06
20,34,2.31332,-7.73204e-06
21,34,2.34789,-7.91003e-06
22,34,2.38278,-8.06663e-06
23,34,2.41799,-8.20168e-06
24,34,2.45351,-8.31507e-06
25,34,2.48933,-8.4067e-06
26,34,2.52544,-8.47649e-06
27,34,2.56182,-8.52442e-06
28,34,2.59847,-8.55049e-06
29,34,2.63537,-8.55472e-06
30,34,2.67251,-8.53722e-06
31,34,2.70987,-8.4981e-06
32,34,2.74745,-8.43756e-06
33,34,2.78522,-8.35582e-06
34,34,2.82316,-8.25317e-06
35,34,2.86128,-8.12998e-06
36,34,2.89953,-7.98665e-06
37,34,2.93792,-7.82367e-06
38,34,2.97642,-7.6416e-06
39,34,3.01501,-7.44106e-06
40,34,3.05367,-7.22275e-06
41,34,3.09239,-6.98747e-06
42,34,3.13114,-6.73607e-06
43,34,3.16991,-6.46951e-06
44,34,3.20867,-6.18882e-06
45,34,3.24739,-5.89512e-06
46,34,3.28607,-5.58963e-06
47,34,3.32467,-5.27366e-06
48,34,3.36318,-4.94859e-06
49,34,3.40157,-4.61593e-06
50,34,3.43981,-4.27724e-06
51,34,3.47788,-3.9342e-06
52,34,3.51577,-3.58859e-06
53,34,3.55343,-3.24225e-06
54,34,3.59085,-2.89714e-06
55,34,3.62801,-2.55528e-06
56,34,3.66487,-2.2188e-06
57,34,3.70141,-1.88989e-06
58,34,3.73761,-1.57084e-06
59,34,3.77344,-1.26401e-06
60,34,3.80886,-9.71803e-07
61,34,3.84387,-6.96724e-07
62,34,3.87842,-4.4132e-07
63,34,3.9125,-2.08195e-07
1,35,1.75505,-5.64816e-07
2,35,1.78268,-1.11228e-06
3,35,1.81073,-1.6422e-06
4,35,1.8392,-2.1544e-06
5,35,1.86809,-2.64867e-06
6,35,1.8974,-3.12481e-06
7,35,1.92713,-3.58264e-06
8,35,1.95726,-4.02193e-06
9,35,1.98781,-4.44248e-06
10,35,2.01877,-4.84408e-06
11,35,2.05013,-5.22649e-06
12,35,2.08189,-5.58951e-06
13,35,2.11405,-5.9329e-06
14,35,2.14659,-6.25644e-06
15,35,2.17953,-6.55989e-06
16,35,2.21284,-6.84305e-06
17,35,2.24652,-7.10567e-06
18,35,2.28058,-7.34756e-06
19,35,2.31499,-7.5685e-06
20,35,2.34975,-7.7683e-06
21,35,2.38486,-7.94678e-06
22,35,2.4203,-8.10376e-06
23,35,2.45607,-8.23911e-06
24,35,2.49215,-8.35271e-06
25,35,2.52853,-8.44444e-06
26,35,2.56521,-8.51425e-06
27,35,2.60216,-8.5621e-06
28,35,2.63939,-8.58799e-06
29,35,2.67687,-8.59196e-06
30,35,2.7146,-8.5741e-06
31,35,2.75255,-8.53452e-06
32,35,2.79071,-8.47342e-06
33,35,2.82908,-8.39103e-06
34,35,2.86762,-8.28764e-06
35,35,2.90633,-8.1636e-06
36,35,2.94519,-8.01933e-06
37,35,2.98419,-7.85532e-06
38,35,3.02329,-7.67212e-06
39,35,3.06249,-7.47036e-06
40,35,3.10176,-7.25075e-06
41,35,3.14109,-7.01407e-06
42,35,3.18045,-6.76121e-06
43,35,3.21983,-6.49311e-06
44,35,3.25919,-6.21081e-06
45,35,3.29853,-5.91546e-06
46,35,3.33782,-5.60826e-06
47,35,3.37703,-5.29054e-06
48,35,3.41614,-4.96371e-06
49,35,3.45513,-4.62926e-06
50,35,3.49398,-4.2888e-06
51,35,3.53265,-3.94402e-06
52,35,3.57113,-3.59669e-06
53,35,3.60939,-3.24871e-06
54,35,3.6474,-2.90203e-06
55,35,3.68514,-2.55871e-06
56,35,3.72258,-2.22091e-06
57,35,3.7597,-1.89084e-06
58,35,3.79647,-1.57082e-06
59,35,3.83286,-1.26324e-06
60,35,3.86884,-9.70539e-07
61,35,3.9044,-6.95254e-07
62,35,3.9395,-4.39968e-07
63,35,3.97411,-2.0732e-07
1,36,1.78269,-5.67608e-07
2,36,1.81076,-1.11761e-06
3,36,1.83925,-1.64984e-06
4,36,1.86817,-2.16411e-06
5,36,1.89751,-2.66026e-06
6,36,1.92728,-3.1381e-06
7,36,1.95747,-3.59744e-06
8,36,1.98809,-4.03809e-06
9,36,2.01912,-4.45986e-06
10,36,2.05056,-4.86253e-06
11,36,2.08241,-5.24591e-06
12,36,2.11467,-5.60977e-06
13,36,2.14734,-5.95391e-06
14,36,2.1804,-6.2781e-06
15,36,2.21385,-6.58212e-06
16,36,2.24769,-6.86576e-06
17,36,2.2819,-7.1288e-06
18,36,2.31649,-7.37103e-06
19,36,2.35145,-7.59225e-06
20,36,2.38676,-7.79226e-06
21,36,2.42242,-7.97089e-06
22,36,2.45841,-8.12798e-06
23,36,2.49474,-8.26337e-06
24,36,2.53139,-8.37694e-06
25,36,2.56835,-8.46861e-06
26,36,2.6056,-8.53829e-06
27,36,2.64314,-8.58595e-06
28,36,2.68095,-8.6116e-06
29,36,2.71903,-8.61527e-06
30,36,2.75735,-8.59704e-06
31,36,2.7959,-8.55705e-06
32,36,2.83466,-8.49546e-06
33,36,2.87363,-8.41252e-06
34,36,2.91278,-8.30852e-06
35,36,2.9521,-8.1838e-06
36,36,2.99157,-8.03879e-06
37,36,3.03118,-7.87398e-06
38,36,3.0709,-7.68991e-06
39,36,3.11072,-7.48721e-06
40,36,3.15061,-7.26661e-06
41,36,3.19055,-7.02889e-06
42,36,3.23054,-6.77492e-06
43,36,3.27053,-6.50567e-06
44,36,3.31052,-6.22218e-06
45,36,3.35048,-5.92559e-06
46,36,3.39038,-5.61713e-06
47,36,3.43021,-5.29813e-06
48,36,3.46994,-4.97e-06
49,36,3.50955,-4.63426e-06
50,36,3.549,-4.29253e-06
51,36,3.58828,-3.94651e-06
52,36,3.62737,-3.598e-06
53,36,3.66623,-3.24889e-06
54,36,3.70484,-2.90119e-06
55,36,3.74317,-2.55696e-06
56,36,3.78121,-2.21839e-06
57,36,3.81891,-1.88772e-06
58,36,3.85625,-1.5673e-06
59,36,3.89322,-1.25953e-06
60,36,3.92977,-9.66915e-07
61,36,3.96589,-6.92006e-07
62,36,4.00154,-4.37424e-07
63,36,4.0367,-2.05846e-07
1,37,1.81076,-5.69615e-07
2,37,1.83927,-1.12137e-06
3,37,1.86821,-1.65511e-06
4,37,1.89759,-2.1707e-06
5,37,1.92739,-2.66795e-06
6,37,1.95763,-3.14672e-06
7,37,1.9883,-3.60684e-06
8,37,2.01939,-4.04812e-06
9,37,2.05091,-4.4704e-06
10,37,2.08285,-4.87347e-06
11,37,2.11521,-5.25714e-06
12,37,2.14798,-5.62121e-06
13,37,2.18115,-5.96549e-06
14,37,2.21473,-6.28975e-06
15,37,2.24871,-6.5938e-06
16,37,2.28308,-6.87741e-06
17,37,2.31784,-7.14038e-06
18,37,2.35297,-7.38251e-06
19,37,2.38848,-7.6036e-06
20,37,2.42434,-7.80345e-06
21,37,2.46056,-7.9819e-06
22,37,2.49713,-8.13878e-06
23,37,2.53403,-8.27395e-06
24,37,2.57126,-8.38729e-06
25,37,2.60879,-8.4787e-06
26,37,2.64664,-8.5481e-06
27,37,2.68477,-8.59547e-06
28,37,2.72317,-8.62081e-06
29,37,2.76185,-8.62414e-06
30,37,2.80077,-8.60555e-06
31,37,2.83992,-8.56517e-06
32,37,2.8793,-8.50318e-06
33,37,2.91888,-8.4198e-06
34,37,2.95865,-8.31533e-06
35,37,2.99859,-8.19012e-06
36,37,3.03869,-8.04458e-06
37,37,3.07891,-7.8792e-06
38,37,3.11926,-7.69454e-06
39,37,3.1597,-7.49122e-06
40,37,3.20022,-7.26995e-06
41,37,3.2408,-7.03154e-06
42,37,3.28141,-6.77684e-06
43,37,3.32204,-6.50684e-06
44,37,3.36265,-6.22258e-06
45,37,3.40324,-5.92519e-06
46,37,3.44377,-5.61593e-06
47,37,3.48423,-5.29613e-06
48,37,3.52458,-4.9672e-06
49,37,3.56481,-4.63069e-06
50,37,3.60489,-4.2882e-06
51,37,3.64479,-3.94147e-06
52,37,3.68449,-3.59231e-06
53,37,3.72396,-3.24264e-06
54,37,3.76318,-2.89447e-06
55,37,3.80212,-2.5499e-06
56,37,3.84075,-2.21112e-06
57,37,3.87905,-1.88043e-06
58,37,3.91698,-1.56018e-06
59,37,3.95453,-1.25282e-06
60,37,3.99165,-9.60874e-07
61,37,4.02834,-6.86936e-07
62,37,4.06455,-4.33659e-07
63,37,4.10026,-2.03759e-07
1,38,1.83928,-5.70801e-07
2,38,1.86824,-1.12349e-06
3,38,1.89763,-1.65793e-06
4,38,1.92747,-2.174e-06
5,38,1.95775,-2.67157e-06
6,38,1.98846,-3.15048e-06
7,38,2.01961,-3.61059e-06
8,38,2.0512,-4.05175e-06
9,38,2.08321,-4.47379e-06
10,38,2.11565,-4.87655e-06
11,38,2.14852,-5.25983e-06
12,38,2.1818,-5.62346e-06
13,38,2.2155,-5.96724e-06
14,38,2.24961,-6.29098e-06
15,38,2.28412,-6.59448e-06
16,38,2.31903,-6.87753e-06
17,38,2.35434,-7.13994e-06
18,38,2.39002,-7.38151e-06
19,38,2.42609,-7.60204e-06
20,38,2.46252,-7.80135e-06
21,38,2.49931,-7.97928e-06
22,38,2.53645,-8.13565e-06
23,38,2.57394,-8.27033e-06
24,38,2.61175,-8.3832e-06
25,38,2.64988,-8.47416e-06
26,38,2.68831,-8.54314e-06
27,38,2.72705,-8.59011e-06
28,38,2.76606,-8.61506e-06
29,38,2.80534,-8.61802e-06
30,38,2.84487,-8.59908e-06
31,38,2.88465,-8.55837e-06
32,38,2.92464,-8.49605e-06
33,38,2.96485,-8.41235e-06
34,38,3.00524,-8.30757e-06
35,38,3.04581,-8.18205e-06
36,38,3.08654,-8.0362e-06
37,38,3.1274,-7.87052e-06
38,38,3.16838,-7.68554e-06
39,38,3.20946,-7.48191e-06
40,38,3.25062,-7.26033e-06
41,38,3.29183,-7.02159e-06
42,38,3.33308,-6.76657e-06
43,38,3.37435,-6.49624e-06
44,38,3.41561,-6.21164e-06
45,38,3.45683,-5.91394e-06
46,38,3.498,-5.60436e-06
47,38,3.5391,-5.28425e-06
48,38,3.58009,-4.95504e-06
49,38,3.62095,-4.61827e-06
50,38,3.66166,-4.27558e-06
51,38,3.70219,-3.92869e-06
52,38,3.74251,-3.57945e-06
53,38,3.78261,-3.22978e-06
54,38,3.82244,-2.88171e-06
55,38,3.862,-2.53738e-06
56,38,3.90123,-2.19899e-06
57,38,3.94013,-1.86886e-06
58,38,3.97866,-1.54938e-06
59,38,4.0168,-1.24303e-06
60,38,4.05451,-9.52359e-07
61,38,4.09178,-6.80002e-07
62,38,4.12856,-4.28646e-07
63,38,4.16483,-2.01044e-07
1,39,1.86824,-5.71128e-07
2,39,1.89766,-1.12389e-06
3,39,1.92752,-1.65817e-06
4,39,1.95782,-2.17388e-06
5,39,1.98858,-2.67091e-06
6,39,2.01978,-3.14914e-06
7,39,2.05142,-3.60844e-06
8,39,2.0835,-4.04869e-06
9,39,2.11602,-4.46973e-06
10,39,2.14897,-4.87142e-06
11,39,2.18235,-5.2536e-06
12,39,2.21616,-5.61609e-06
13,39,2.25039,-5.95873e-06
14,39,2.28504,-6.28132e-06
15,39,2.32009,-6.58368e-06
16,39,2.35555,-6.86563e-06
17,39,2.39141,-7.12696e-06
18,39,2.42766,-7.36749e-06
19,39,2.46429,-7.58703e-06
20,39,2.5013,-7.78541e-06
21,39,2.53867,-7.96244e-06
22,39,2.5764,-8.11799e-06
23,39,2.61447,-8.25191e-06
24,39,2.65288,-8.36408e-06
25,39,2.69161,-8.4544e-06
26,39,2.73065,-8.52281e-06
27,39,2.76999,-8.56926e-06
28,39,2.80962,-8.59375e-06
29,39,2.84952,-8.59632e-06
30,39,2.88967,-8.57704e-06
31,39,2.93007,-8.53604e-06
32,39,2.9707,-8.47348e-06
33,39,3.01154,-8.38959e-06
34,39,3.05257,-8.28467e-06
35,39,3.09378,-8.15904e-06
36,39,3.13514,-8.01312e-06
37,39,3.17665,-7.8474e-06
38,39,3.21828,-7.66242e-06
39,39,3.26,-7.4588e-06
40,39,3.30181,-7.23727e-06
41,39,3.34367,-6.9986e-06
42,39,3.38557,-6.74367e-06
43,39,3.42749,-6.47345e-06
44,39,3.4694,-6.189e-06
45,39,3.51127,-5.89145e-06
46,39,3.55309,-5.58206e-06
47,39,3.59483,-5.26217e-06
48,39,3.63647,-4.93321e-06
49,39,3.67797,-4.59675e-06
50,39,3.71932,-4.2544e-06
51,39,3.76049,-3.90794e-06
52,39,3.80145,-3.55919e-06
53,39,3.84218,-3.21011e-06
54,39,3.88264,-2.86275e-06
55,39,3.92281,-2.51925e-06
56,39,3.96267,-2.18186e-06
57,39,4.00218,-1.8529e-06
58,39,4.04132,-1.5348e-06
59,39,4.08006,-1.23008e-06
60,39,4.11836,-9.4131e-07
61,39,4.15621,-6.71159e-07
62,39,4.19357,-4.22355e-07
63,39,4.23042,-1.97687e-07
1,40,1.89766,-5.70552e-07
2,40,1.92754,-1.12248e-06
3,40,1.95787,-1.65571e-06
4,40,1.98865,-2.17017e-06
5,40,2.01989,-2.66578e-06
6,40,2.05158,-3.14246e-06
7,40,2.08372,-3.6001e-06
8,40,2.11631,-4.0386e-06
9,40,2.14934,-4.45784e-06
10,40,2.18281,-4.85769e-06
11,40,2.21672,-5.23802e-06
12,40,2.25106,-5.59866e-06
13,40,2.28583,-5.93947e-06
14,40,2.32102,-6.26027e-06
15,40,2.35663,-6.56089e-06
16,40,2.39265,-6.84115e-06
17,40,2.42907,-7.10087e-06
18,40,2.46589,-7.33987e-06
19,40,2.5031,-7.55797e-06
20,40,2.54069,-7.755e-06
21,40,2.57865,-7.93078e-06
22,40,2.61697,-8.08518e-06
23,40,2.65564,-8.21805e-06
24,40,2.69465,-8.32928e-06
25,40,2.73399,-8.41877e-06
26,40,2.77365,-8.48644e-06
27,40,2.81361,-8.53227e-06
28,40,2.85386,-8.55624e-06
29,40,2.89439,-8.55839e-06
30,40,2.93518,-8.53879e-06
31,40,2.97622,-8.49755e-06
32,40,3.01748,-8.43486e-06
33,40,3.05896,-8.35092e-06
34,40,3.10064,-8.24602e-06
35,40,3.1425,-8.1205e-06
36,40,3.18452,-7.97476e-06
37,40,3.22667,-7.80929e-06
38,40,3.26896,-7.62462e-06
39,40,3.31134,-7.42138e-06
40,40,3.3538,-7.20027e-06
41,40,3.39633,-6.96209e-06
42,40,3.43889,-6.70769e-06
43,40,3.48146,-6.43805e-06
44,40,3.52403,-6.15422e-06
45,40,3.56657,-5.85734e-06
46,40,3.60904,-5.54867e-06
47,40,3.65144,-5.22954e-06
48,40,3.69373,-4.90141e-06
49,40,3.73589,-4.56582e-06
50,40,3.77789,-4.22442e-06
51,40,3.81971,-3.87897e-06
52,40,3.86131,-3.53132e-06
53,40,3.90268,-3.18345e-06
54,40,3.94378,-2.83741e-06
55,40,3.98459,-2.49537e-06
56,40,4.02507,-2.15959e-06
57,40,4.06521,-1.83244e-06
58,40,4.10496,-1.51636e-06
59,40,4.14431,-1.2139e-06
60,40,4.18322,-9.27667e-07
61,40,4.22166,-6.60364e-07
62,40,4.25961,-4.14756e-07
63,40,4.29704,-1.93674e-07
1,41,1.92755,-5.69026e-07
2,41,1.95789,-1.11917e-06
3,41,1.9887,-1.6504e-06
4,41,2.01997,-2.16267e-06
5,41,2.0517,-2.65594e-06
6,41,2.08389,-3.13015e-06
7,41,2.11654,-3.58524e-06
8,41,2.14963,-4.02113e-06
9,41,2.18319,-4.43773e-06
10,41,2.21718,-4.83494e-06
11,41,2.25163,-5.21263e-06
12,41,2.28651,-5.57068e-06
13,41,2.32183,-5.90895e-06
14,41,2.35757,-6.22728e-06
15,41,2.39374,-6.52553e-06
16,41,2.43033,-6.80351e-06
17,41,2.46732,-7.06107e-06
18,41,2.50472,-7.29803e-06
19,41,2.54252,-7.51421e-06
20,41,2.5807,-7.70946e-06
21,41,2.61926,-7.88362e-06
22,41,2.65818,-8.03653e-06
23,41,2.69746,-8.16807e-06
24,41,2.73709,-8.27811e-06
25,41,2.77705,-8.36656e-06
26,41,2.81733,-8.43335e-06
27,41,2.85792,-8.47844e-06
28,41,2.8988,-8.50183e-06
29,41,2.93997,-8.50353e-06
30,41,2.9814,-8.48362e-06
31,41,3.02308,-8.44223e-06
32,41,3.065,-8.3795e-06
33,41,3.10713,-8.29565e-06
34,41,3.14947,-8.19097e-06
35,41,3.19199,-8.06579e-06
36,41,3.23466,-7.9205e-06
37,41,3.27749,-7.75558e-06
38,41,3.32044,-7.57156e-06
39,41,3.36349,-7.36907e-06
40,41,3.40662,-7.1488e-06
41,41,3.44981,-6.91153e-06
42,41,3.49304,-6.65813e-06
43,41,3.53629,-6.38956e-06
44,41,3.57953,-6.10686e-06
45,41,3.62273,-5.8112e-06
46,41,3.66588,-5.5038e-06
47,41,3.70894,-5.18601e-06
48,41,3.7519,-4.85929e-06
49,41,3.79472,-4.52518e-06
50,41,3.83739,-4.18533e-06
51,41,3.87986,-3.84153e-06
52,41,3.92212,-3.49562e-06
53,41,3.96414,-3.14959e-06
54,41,4.00589,-2.80551e-06
55,41,4.04734,-2.46558e-06
56,41,4.08846,-2.13207e-06
57,41,4.12922,-1.80738e-06
58,41,4.1696,-1.49397e-06
59,41,4.20957,-1.19441e-06
60,41,4.24909,-9.11371e-07
61,41,4.28814,-6.47572e-07
62,41,4.32669,-4.05822e-07
63,41,4.36471,-1.88989e-07
1,42,1.9579,-5.66498e-07
2,42,1.98873,-1.11386e-06
3,42,2.02002,-1.64208e-06
4,42,2.05178,-2.15118e-06
5,42,2.08401,-2.64113e-06
6,42,2.11671,-3.11193e-06
7,42,2.14987,-3.56354e-06
8,42,2.18349,-3.99591e-06
9,42,2.21757,-4.40899e-06
10,42,2.2521,-4.80269e-06
11,42,2.28708,-5.17693e-06
12,42,2.32252,-5.53161e-06
13,42,2.35839,-5.8666e-06
14,42,2.3947,-6.18176e-06
15,42,2.43144,-6.47697e-06
16,42,2.4686,-6.75206e-06
17,42,2.50618,-7.00688e-06
18,42,2.54417,-7.24126e-06
19,42,2.58256,-7.45506e-06
20,42,2.62134,-7.6481e-06
21,42,2.6605,-7.82023e-06
22,42,2.70004,-7.97131e-06
23,42,2.73994,-8.10121e-06
24,42,2.78019,-8.20981e-06
25,42,2.82078,-8.29703e-06
26,42,2.8617,-8.36278e-06
27,42,2.90293,-8.40702e-06
28,42,2.94445,-8.42975e-06
29,42,2.98627,-8.43099e-06
30,42,3.02835,-8.41081e-06
31,42,3.07069,-8.36932e-06
32,42,3.11327,-8.30668e-06
33,42,3.15607,-8.22309e-06
34,42,3.19907,-8.11883e-06
35,42,3.24225,-7.99423e-06
36,42,3.2856,-7.84967e-06
37,42,3.3291,-7.68562e-06
38,42,3.37272,-7.50262e-06
39,42,3.41645,-7.30127e-06
40,42,3.46027,-7.08226e-06
41,42,3.50414,-6.84637e-06
42,42,3.54805,-6.59446e-06
43,42,3.59198,-6.32747e-06
44,42,3.6359,-6.04646e-06
45,42,3.67978,-5.75257e-06
46,42,3.72361,-5.44703e-06
47,42,3.76735,-5.1312e-06
48,42,3.81098,-4.8065e-06
49,42,3.85448,-4.47451e-06
50,42,3.89782,-4.13687e-06
51,42,3.94096,-3.79536e-06
52,42,3.98389,-3.45185e-06
53,42,4.02657,-3.10832e-06
54,42,4.06897,-2.76688e-06
55,42,4.11107,-2.42973e-06
56,42,4.15284,-2.09916e-06
57,42,4.19425,-1.77759e-06
58,42,4.23527,-1.46751e-06
59,42,4.27586,-1.17154e-06
60,42,4.31601,-8.92364e-07
61,42,4.35567,-6.32742e-07
62,42,4.39483,-3.95524e-07
63,42,4.43344,-1.8362e-07
1,43,1.98874,-5.62911e-07
2,43,2.02004,-1.10643e-06
3,43,2.05183,-1.6306e-06
4,43,2.08409,-2.13548e-06
5,43,2.11683,-2.62109e-06
6,43,2.15004,-3.08746e-06
7,43,2.18372,-3.5346e-06
8,43,2.21787,-3.9625e-06
9,43,2.25249,-4.37113e-06
10,43,2.28756,-4.76044e-06
11,43,2.3231,-5.13038e-06
12,43,2.35909,-5.48087e-06
13,43,2.39553,-5.8118e-06
14,43,2.43241,-6.12307e-06
15,43,2.46973,-6.41455e-06
16,43,2.50748,-6.6861e-06
17,43,2.54565,-6.93758e-06
18,43,2.58423,-7.16885e-06
19,43,2.62323,-7.37975e-06
20,43,2.66262,-7.57012e-06
21,43,2.7024,-7.73983e-06
22,43,2.74256,-7.88872e-06
23,43,2.78309,-8.01668e-06
24,43,2.82397,-8.12359e-06
25,43,2.8652,-8.20935e-06
26,43,2.90676,-8.2739e-06
27,43,2.94864,-8.31719e-06
28,43,2.99082,-8.33921e-06
29,43,3.0333,-8.33997e-06
30,43,3.07604,-8.31955e-06
31,43,3.11905,-8.27805e-06
32,43,3.16229,-8.21562e-06
33,43,3.20577,-8.13247e-06
34,43,3.24944,-8.02885e-06
35,43,3.29331,-7.90508e-06
36,43,3.33734,-7.76156e-06
37,43,3.38153,-7.59873e-06
38,43,3.42584,-7.41712e-06
39,43,3.47025,-7.21733e-06
40,43,3.51476,-7.00005e-06
41,43,3.55932,-6.76602e-06
42,43,3.60392,-6.51612e-06
43,43,3.64854,-6.25127e-06
44,43,3.69315,-5.97252e-06
45,43,3.73773,-5.681e-06
46,43,3.78225,-5.37794e-06
47,43,3.82668,-5.06469e-06
48,43,3.871,-4.74268e-06
49,43,3.91518,-4.41347e-06
50,43,3.9592,-4.07871e-06
51,43,4.00302,-3.74018e-06
52,43,4.04662,-3.39976e-06
53,43,4.08998,-3.05944e-06
54,43,4.13305,-2.72134e-06
55,43,4.17581,-2.38765e-06
56,43,4.21824,-2.06072e-06
57,43,4.2603,-1.74296e-06
58,43,4.30196,-1.43692e-06
59,43,4.3432,-1.14522e-06
60,43,4.38398,-8.70592e-07
61,43,4.42426,-6.15835e-07
62,43,4.46404,-3.83837e-07
63,43,4.50326,-1.77553e-07
1,44,2.02005,-5.58203e-07
2,44,2.05186,-1.09676e-06
3,44,2.08414,-1.61576e-06
4,44,2.11691,-2.11532e-06
5,44,2.15016,-2.59551e-06
6,44,2.1839,-3.05639e-06
7,44,2.21811,-3.49803e-06
8,44,2.2528,-3.92045e-06
9,44,2.28796,-4.32366e-06
10,44,2.32359,-4.70765e-06
11,44,2.35968,-5.07239e-06
12,44,2.39624,-5.41783e-06
13,44,2.43325,-5.7439e-06
14,44,2.47071,-6.0505e-06
15,44,2.50862,-6.33754e-06
16,44,2.54696,-6.60489e-06
17,44,2.58573,-6.85242e-06
18,44,2.62493,-7.07999e-06
19,44,2.66454,-7.28747e-06
20,44,2.70455,-7.47471e-06
21,44,2.74496,-7.64157e-06
22,44,2.78575,-7.78791e-06
23,44,2.82692,-7.91361e-06
24,44,2.86844,-8.01856e-06
25,44,2.91032,-8.10267e-06
26,44,2.95254,-8.16585e-06
27,44,2.99507,-8.20808e-06
28,44,3.03792,-8.22932e-06
29,44,3.08106,-8.22961e-06
30,44,3.12448,-8.20899e-06
31,44,3.16817,-8.16757e-06
32,44,3.21209,-8.10549e-06
33,44,3.25625,-8.02296e-06
34,44,3.30062,-7.92021e-06
35,44,3.34517,-7.79757e-06
36,44,3.3899,-7.6554e-06
37,44,3.43478,-7.49416e-06
38,44,3.47979,-7.31436e-06
39,44,3.5249,-7.11658e-06
40,44,3.57011,-6.90149e-06
41,44,3.61537,-6.66985e-06
42,44,3.66068,-6.4225e-06
43,44,3.706,-6.16038e-06
44,44,3.75131,-5.88449e-06
45,44,3.79659,-5.59598e-06
46,44,3.84181,-5.29607e-06
47,44,3.88694,-4.98607e-06
48,44,3.93196,-4.66744e-06
49,44,3.97684,-4.34172e-06
50,44,4.02155,-4.01056e-06
51,44,4.06606,-3.67573e-06
52,44,4.11035,-3.33912e-06
53,44,4.15438,-3.00274e-06
54,44,4.19813,-2.66868e-06
55,44,4.24157,-2.3392e-06
56,44,4.28467,-2.01662e-06
57,44,4.32739,-1.7034e-06
58,44,4.36971,-1.4021e-06
59,44,4.41159,-1.11538e-06
60,44,4.45301,-8.46004e-07
61,44,4.49394,-5.96812e-07
62,44,4.53433,-3.70737e-07
63,44,4.57417,-1.70778e-07
1,45,2.05186,-5.52306e-07
2,45,2.08417,-1.08471e-06
3,45,2.11696,-1.59737e-06
4,45,2.15025,-2.09044e-06
5,45,2.18402,-2.56405e-06
6,45,2.21829,-3.01833e-06
7,45,2.25304,-3.45337e-06
8,45,2.28827,-3.86925e-06
9,45,2.32399,-4.26602e-06
10,45,2.36018,-4.64371e-06
11,45,2.39684,-5.00231e-06
12,45,2.43398,-5.34182e-06
13,45,2.47157,-5.66217e-06
14,45,2.50962,-5.96332e-06
15,45,2.54812,-6.24516e-06
16,45,2.58707,-6.50761e-06
17,45,2.62645,-6.75054e-06
18,45,2.66627,-6.97383e-06
19,45,2.7065,-7.17736e-06
20,45,2.74714,-7.36098e-06
21,45,2.78819,-7.52456e-06
22,45,2.82962,-7.66797e-06
23,45,2.87143,-7.79109e-06
24,45,2.91362,-7.89381e-06
25,45,2.95615,-7.97604e-06
26,45,2.99903,-8.0377e-06
27,45,3.04224,-8.07875e-06
28,45,3.08576,-8.09917e-06
29,45,3.12958,-8.09897e-06
30,45,3.17369,-8.07821e-06
31,45,3.21806,-8.03697e-06
32,45,3.26268,-7.9754e-06
33,45,3.30753,-7.89368e-06
34,45,3.35259,-7.79206e-06
35,45,3.39785,-7.67084e-06
36,45,3.44328,-7.53039e-06
37,45,3.48887,-7.37112e-06
38,45,3.53459,-7.19355e-06
39,45,3.58041,-6.99826e-06
40,45,3.62633,-6.78589e-06
41,45,3.67231,-6.55719e-06
42,45,3.71833,-6.31299e-06
43,45,3.76436,-6.0542e-06
44,45,3.81039,-5.78183e-06
45,45,3.85638,-5.497e-06
46,45,3.90231,-5.20092e-06
47,45,3.94815,-4.8949e-06
48,45,3.99388,-4.58038e-06
49,45,4.03946,-4.25888e-06
50,45,4.08488,-3.93207e-06
51,45,4.13009,-3.60171e-06
52,45,4.17508,-3.26968e-06
53,45,4.21981,-2.93798e-06
54,45,4.26425,-2.60875e-06
55,45,4.30837,-2.28422e-06
56,45,4.35214,-1.96674e-06
57,45,4.39554,-1.6588e-06
58,45,4.43852,-1.36297e-06
59,45,4.48107,-1.08196e-06
60,45,4.52314,-8.18555e-07
61,45,4.56471,-5.75645e-07
62,45,4.60574,-3.56204e-07
63,45,4.64621,-1.63284e-07
1,46,2.08418,-5.45144e-07
2,46,2.11699,-1.07013e-06
3,46,2.1503,-1.5752e-06
4,46,2.18411,-2.06054e-06
5,46,2.21842,-2.52637e-06
6,46,2.25322,-2.97285e-06
7,46,2.28852,-3.40014e-06
8,46,2.32431,-3.80836e-06
9,46,2.36059,-4.19762e-06
10,46,2.39735,-4.56797e-06
11,46,2.43459,-4.91945e-06
12,46,2.47231,-5.25208e-06
13,46,2.51049,-5.56585e-06
14,46,2.54914,-5.8607e-06
15,46,2.58825,-6.13658e-06
16,46,2.62781,-6.3934e-06
17,46,2.66782,-6.63106e-06
18,46,2.70825,-6.84946e-06
19,46,2.74912,-7.04847e-06
20,46,2.7904,-7.22797e-06
21,46,2.83209,-7.38782e-06
22,46,2.87418,-7.52791e-06
23,46,2.91665,-7.64812e-06
24,46,2.9595,-7.74834e-06
25,46,3.00271,-7.82847e-06
26,46,3.04626,-7.88845e-06
27,46,3.09015,-7.92822e-06
28,46,3.13436,-7.94776e-06
29,46,3.17887,-7.94709e-06
30,46,3.22367,-7.92623e-06
31,46,3.26873,-7.88529e-06
32,46,3.31406,-7.82439e-06
33,46,3.35961,-7.74372e-06
34,46,3.40539,-7.6435e-06
35,46,3.45136,-7.52402e-06
36,46,3.49751,-7.38564e-06
37,46,3.54381,-7.22877e-06
38,46,3.59025,-7.0539e-06
39,46,3.6368,-6.8616e-06
40,46,3.68343,-6.6525e-06
41,46,3.73014,-6.42733e-06
42,46,3.77688,-6.18689e-06
43,46,3.82364,-5.93209e-06
44,46,3.87039,-5.66393e-06
45,46,3.91711,-5.3835e-06
46,46,3.96376,-5.09199e-06
47,46,4.01032,-4.79071e-06
48,46,4.05677,-4.48107e-06
49,46,4.10308,-4.16459e-06
50,46,4.1492,-3.84292e-06
51,46,4.19513,-3.51783e-06
52,46,4.24083,-3.19117e-06
53,46,4.28626,-2.86498e-06
54,46,4.3314,-2.54135e-06
55,46,4.37621,-2.22256e-06
56,46,4.42068,-1.91096e-06
57,46,4.46476,-1.60906e-06
58,46,4.50842,-1.31947e-06
59,46,4.55163,-1.04491e-06
60,46,4.59437,-7.88209e-07
61,46,4.63659,-5.52307e-07
62,46,4.67827,-3.40225e-07
63,46,4.71937,-1.55065e-07
1,47,2.117,-5.36635e-07
2,47,2.15033,-1.05287e-06
3,47,2.18416,-1.549e-06
4,47,2.2185,-2.02531e-06
5,47,2.25335,-2.48206e-06
6,47,2.28871,-2.91949e-06
7,47,2.32456,-3.33781e-06
8,47,2.36091,-3.7372e-06
9,47,2.39776,-4.1178e-06
10,47,2.4351,-4.47973e-06
11,47,2.47293,-4.82306e-06
12,47,2.51124,-5.14785e-06
13,47,2.55003,-5.45409e-06
14,47,2.58929,-5.74178e-06
15,47,2.62901,-6.01088e-06
16,47,2.66919,-6.26132e-06
17,47,2.70983,-6.49302e-06
18,47,2.7509,-6.70589e-06
19,47,2.79241,-6.89981e-06
20,47,2.83435,-7.07466e-06
21,47,2.87669,-7.23034e-06
22,47,2.91944,-7.36671e-06
23,47,2.96258,-7.48366e-06
24,47,3.0061,-7.58109e-06
25,47,3.04999,-7.65891e-06
26,47,3.09423,-7.71704e-06
27,47,3.13881,-7.75542e-06
28,47,3.18372,-7.77404e-06
29,47,3.22893,-7.77289e-06
30,47,3.27443,-7.75202e-06
31,47,3.32021,-7.7115e-06
32,47,3.36625,-7.65146e-06
33,47,3.41252,-7.57206e-06
34,47,3.45902,-7.47353e-06
35,47,3.50571,-7.35614e-06
36,47,3.55259,-7.22023e-06
37,47,3.59962,-7.0662e-06
38,47,3.64679,-6.89453e-06
39,47,3.69407,-6.70576e-06
40,47,3.74144,-6.50051e-06
41,47,3.78888,-6.2795e-06
42,47,3.83636,-6.04349e-06
43,47,3.88385,-5.79339e-06
44,47,3.93134,-5.53017e-06
45,47,3.97879,-5.25489e-06
46,47,4.02618,-4.96874e-06
47,47,4.07348,-4.673e-06
48,47,4.12066,-4.36907e-06
49,47,4.16769,-4.05845e-06
50,47,4.21454,-3.74277e-06
51,47,4.26119,-3.42379e-06
52,47,4.30761,-3.10336e-06
53,47,4.35376,-2.7835e-06
54,47,4.39961,-2.46632e-06
55,47,4.44513,-2.15409e-06
56,47,4.49029,-1.84919e-06
57,47,4.53507,-1.55412e-06
58,47,4.57942,-1.27154e-06
59,47,4.62331,-1.00419e-06
60,47,4.66672,-7.54944e-07
61,47,4.70961,-5.26787e-07
62,47,4.75194,-3.22791e-07
63,47,4.79369,-1.46118e-07
1,48,2.15034,-5.26688e-07
2,48,2.18419,-1.03273e-06
3,48,2.21856,-1.51851e-06
4,48,2.25344,-1.98438e-06
5,48,2.28884,-2.43068e-06
6,48,2.32475,-2.85773e-06
7,48,2.36117,-3.26579e-06
8,48,2.39809,-3.6551e-06
9,48,2.43552,-4.02586e-06
10,48,2.47345,-4.37823e-06
11,48,2.51187,-4.71233e-06
12,48,2.55079,-5.02824e-06
13,48,2.59018,-5.326e-06
14,48,2.63006,-5.60563e-06
15,48,2.67041,-5.8671e-06
16,48,2.71123,-6.11038e-06
17,48,2.7525,-6.3354e-06
18,48,2.79422,-6.54207e-06
19,48,2.83639,-6.7303e-06
20,48,2.87898,-6.89998e-06
21,48,2.92199,-7.051e-06
22,48,2.96542,-7.18324e-06
23,48,3.00924,-7.29659e-06
24,48,3.05344,-7.39094e-06
25,48,3.09802,-7.46622e-06
26,48,3.14296,-7.52233e-06
27,48,3.18824,-7.55922e-06
28,48,3.23385,-7.57687e-06
29,48,3.27978,-7.57527e-06
30,48,3.326,-7.55446e-06
31,48,3.3725,-7.51451e-06
32,48,3.41926,-7.45552e-06
33,48,3.46626,-7.37765e-06
34,48,3.51349,-7.28112e-06
35,48,3.56092,-7.16619e-06
36,48,3.60853,-7.03318e-06
37,48,3.6563,-6.88247e-06
38,48,3.70421,-6.71453e-06
39,48,3.75224,-6.52987e-06
40,48,3.80036,-6.3291e-06
41,48,3.84854,-6.1129e-06
42,48,3.89677,-5.88204e-06
43,48,3.94502,-5.63738e-06
44,48,3.99325,-5.37988e-06
45,48,4.04145,-5.11057e-06
46,48,4.08958,-4.83062e-06
47,48,4.13763,-4.54128e-06
48,48,4.18555,-4.24393e-06
49,48,4.23332,-3.94006e-06
50,48,4.28091,-3.63127e-06
51,48,4.3283,-3.31929e-06
52,48,4.37544,-3.00599e-06
53,48,4.42232,-2.69335e-06
54,48,4.46889,-2.3835e-06
55,48,4.51513,-2.07869e-06
56,48,4.56101,-1.78132e-06
57,48,4.60648,-1.49392e-06
58,48,4.65153,-1.21914e-06
59,48,4.69612,-9.59779e-07
60,48,4.74021,-7.1875e-07
61,48,4.78377,-4.99081e-07
62,48,4.82677,-3.03904e-07
63,48,4.86918,-1.36443e-07
1,49,2.1842,-5.15203e-07
2,49,2.21858,-1.00952e-06
3,49,2.25349,-1.48343e-06
4,49,2.28893,-1.93737e-06
5,49,2.32488,-2.37178e-06
6,49,2.36136,-2.78702e-06
7,49,2.39835,-3.18345e-06
8,49,2.43586,-3.56138e-06
9,49,2.47387,-3.92104e-06
10,49,2.5124,-4.26265e-06
11,49,2.55143,-4.58638e-06
12,49,2.59095,-4.89234e-06
13,49,2.63097,-5.18061e-06
14,49,2.67148,-5.45123e-06
15,49,2.71247,-5.7042e-06
16,49,2.75392,-5.9395e-06
17,49,2.79585,-6.15709e-06
18,49,2.83823,-6.35689e-06
19,49,2.88105,-6.53881e-06
20,49,2.92432,-6.70277e-06
21,49,2.96801,-6.84864e-06
22,49,3.01212,-6.97632e-06
23,49,3.05663,-7.0857e-06
24,49,3.10153,-7.17669e-06
25,49,3.14681,-7.24919e-06
26,49,3.19245,-7.30312e-06
27,49,3.23845,-7.33842e-06
28,49,3.28478,-7.35507e-06
29,49,3.33142,-7.35304e-06
30,49,3.37837,-7.33238e-06
31,49,3.42561,-7.29314e-06
32,49,3.4731,-7.23542e-06
33,49,3.52085,-7.15936e-06
34,49,3.56882,-7.06517e-06
35,49,3.617,-6.95309e-06
36,49,3.66536,-6.82343e-06
37,49,3.71388,-6.67656e-06
38,49,3.76255,-6.5129e-06
39,49,3.81133,-6.33297e-06
40,49,3.86021,-6.13734e-06
41,49,3.90915,-5.92668e-06
42,49,3.95814,-5.70172e-06
43,49,4.00714,-5.46331e-06
44,49,4.05614,-5.21235e-06
45,49,4.10509,-4.94988e-06
46,49,4.15399,-4.67702e-06
47,49,4.20278,-4.39501e-06
48,49,4.25146,-4.10518e-06
49,49,4.29999,-3.809e-06
50,49,4.34833,-3.50805e-06
51,49,4.39646,-3.20404e-06
52,49,4.44435,-2.89881e-06
53,49,4.49196,-2.59434e-06
54,49,4.53927,-2.29274e-06
55,49,4.58623,-1.99626e-06
56,49,4.63283,-1.7073e-06
57,49,4.67902,-1.42841e-06
58,49,4.72478,-1.16226e-06
59,49,4.77007,-9.11686e-07
60,49,4.81486,-6.79641e-07
61,49,4.8591,-4.69206e-07
62,49,4.90278,-2.83576e-07
63,49,4.94586,-1.26049e-07
1,50,2.2186,-5.02067e-07
2,50,2.25352,-9.83022e-07
3,50,2.28898,-1.44344e-06
4,50,2.32497,-1.88386e-06
5,50,2.36149,-2.30481e-06
6,50,2.39854,-2.70675e-06
7,50,2.43612,-3.09011e-06
8,50,2.47422,-3.45525e-06
9,50,2.51283,-3.80249e-06
10,50,2.55196,-4.13209e-06
11,50,2.59161,-4.44426e-06
12,50,2.63176,-4.73915e-06
13,50,2.67241,-5.01688e-06
14,50,2.71355,-5.27751e-06
15,50,2.75518,-5.52107e-06
16,50,2.79729,-5.74755e-06
17,50,2.83988,-5.95693e-06
18,50,2.88292,-6.14915e-06
19,50,2.92642,-6.32413e-06
20,50,2.97037,-6.48178e-06
21,50,3.01475,-6.622e-06
22,50,3.05955,-6.74469e-06
23,50,3.10476,-6.84974e-06
24,50,3.15037,-6.93706e-06
25,50,3.19636,-7.00655e-06
26,50,3.24273,-7.05813e-06
27,50,3.28945,-7.09174e-06
28,50,3.33651,-7.10735e-06
29,50,3.38389,-7.10494e-06
30,50,3.43158,-7.08453e-06
31,50,3.47955,-7.04616e-06
32,50,3.5278,-6.98994e-06
33,50,3.57629,-6.91599e-06
34,50,3.62502,-6.8245e-06
35,50,3.67395,-6.7157e-06
36,50,3.72308,-6.58988e-06
37,50,3.77237,-6.44738e-06
38,50,3.8218,-6.28861e-06
39,50,3.87135,-6.11407e-06
40,50,3.921,-5.9243e-06
41,50,3.97071,-5.71994e-06
42,50,4.02047,-5.50169e-06
43,50,4.07025,-5.27037e-06
44,50,4.12001,-5.02686e-06
45,50,4.16974,-4.77215e-06
46,50,4.2194,-4.50735e-06
47,50,4.26897,-4.23363e-06
48,50,4.31841,-3.95232e-06
49,50,4.3677,-3.66485e-06
50,50,4.41681,-3.37276e-06
51,50,4.46569,-3.07774e-06
52,50,4.51434,-2.7816e-06
53,50,4.5627,-2.48629e-06
54,50,4.61075,-2.19391e-06
55,50,4.65846,-1.90671e-06
56,50,4.70579,-1.62709e-06
57,50,4.75271,-1.35759e-06
58,50,4.79919,-1.10092e-06
59,50,4.84519,-8.59942e-07
60,50,4.89068,-6.37655e-07
61,50,4.93562,-4.37198e-07
62,50,4.97999,-2.61839e-07
63,50,5.02375,-1.14951e-07
1,51,2.25353,-4.87157e-07
2,51,2.28901,-9.52981e-07
3,51,2.32503,-1.39816e-06
4,51,2.36159,-1.82337e-06
5,51,2.39868,-2.2292e-06
6,51,2.43632,-2.61624e-06
7,51,2.47448,-2.98499e-06
8,51,2.51318,-3.33589e-06
9,51,2.5524,-3.66931e-06
10,51,2.59215,-3.98558e-06
11,51,2.63242,-4.28495e-06
12,51,2.6732,-4.5676e-06
13,51,2.71449,-4.83369e-06
14,51,2.75628,-5.0833e-06
15,51,2.79857,-5.3165e-06
16,51,2.84134,-5.5333e-06
17,51,2.8846,-5.73367e-06
18,51,2.92832,-5.91757e-06
19,51,2.97251,-6.08495e-06
20,51,3.01715,-6.23571e-06
21,51,3.06222,-6.36976e-06
22,51,3.10773,-6.48701e-06
23,51,3.15366,-6.58736e-06
24,51,3.19998,-6.6707e-06
25,51,3.2467,-6.73694e-06
26,51,3.29379,-6.78601e-06
27,51,3.34125,-6.81783e-06
28,51,3.38905,-6.83237e-06
29,51,3.43718,-6.82962e-06
30,51,3.48562,-6.80957e-06
31,51,3.53435,-6.77226e-06
32,51,3.58335,-6.71779e-06
33,51,3.63261,-6.64627e-06
34,51,3.68211,-6.55787e-06
35,51,3.73181,-6.4528e-06
36,51,3.78171,-6.33133e-06
37,51,3.83177,-6.19379e-06
38,51,3.88198,-6.04056e-06
39,51,3.93232,-5.87211e-06
40,51,3.98274,-5.68895e-06
41,51,4.03324,-5.4917e-06
42,51,4.08378,-5.28103e-06
43,51,4.13434,-5.05772e-06
44,51,4.18489,-4.82261e-06
45,51,4.2354,-4.57666e-06
46,51,4.28585,-4.32093e-06
47,51,4.3362,-4.05657e-06
48,51,4.38642,-3.78486e-06
49,51,4.43648,-3.50718e-06
50,51,4.48636,-3.22504e-06
51,51,4.53602,-2.9401e-06
52,51,4.58543,-2.65412e-06
53,51,4.63455,-2.36904e-06
54,51,4.68336,-2.08692e-06
55,51,4.73182,-1.81e-06
56,51,4.77989,-1.54068e-06
57,51,4.82755,-1.28149e-06
58,51,4.87476,-1.03518e-06
59,51,4.92149,-8.04619e-07
60,51,4.9677,-5.92867e-07
61,51,5.01335,-4.03126e-07
62,51,5.05842,-2.3874e-07
63,51,5.10286,-1.03175e-07
1,52,2.28902,-4.70332e-07
2,52,2.32506,-9.19124e-07
3,52,2.36164,-1.3472e-06
4,52,2.39878,-1.75535e-06
5,52,2.43646,-2.14432e-06
6,52,2.47468,-2.51475e-06
7,52,2.51345,-2.86727e-06
8,52,2.55276,-3.20237e-06
9,52,2.5926,-3.52051e-06
10,52,2.63297,-3.82206e-06
11,52,2.67387,-4.10732e-06
12,52,2.7153,-4.37652e-06
13,52,2.75724,-4.62983e-06
14,52,2.79969,-4.86738e-06
15,52,2.84264,-5.08924e-06
16,52,2.88609,-5.29543e-06
17,52,2.93002,-5.48597e-06
18,52,2.97444,-5.66081e-06
19,52,3.01932,-5.8199e-06
20,52,3.06466,-5.96317e-06
21,52,3.11045,-6.09052e-06
22,52,3.15667,-6.20188e-06
23,52,3.20332,-6.29712e-06
24,52,3.25038,-6.37617e-06
25,52,3.29783,-6.43893e-06
26,52,3.34566,-6.48531e-06
27,52,3.39387,-6.51525e-06
28,52,3.44242,-6.52871e-06
29,52,3.4913,-6.52565e-06
30,52,3.54051,-6.50609e-06
31,52,3.59,-6.47005e-06
32,52,3.63978,-6.4176e-06
33,52,3.68982,-6.34885e-06
34,52,3.74009,-6.26395e-06
35,52,3.79058,-6.16309e-06
36,52,3.84126,-6.04653e-06
37,52,3.89212,-5.91456e-06
38,52,3.94312,-5.76756e-06
39,52,3.99424,-5.60595e-06
40,52,4.04546,-5.43023e-06
41,52,4.09676,-5.24096e-06
42,52,4.14809,-5.03879e-06
43,52,4.19945,-4.82446e-06
44,52,4.25079,-4.59878e-06
45,52,4.3021,-4.36265e-06
46,52,4.35334,-4.1171e-06
47,52,4.40448,-3.86322e-06
48,52,4.45549,-3.60225e-06
49,52,4.50635,-3.33553e-06
50,52,4.55701,-3.06452e-06
51,52,4.60745,-2.79082e-06
52,52,4.65764,-2.51617e-06
53,52,4.70753,-2.24245e-06
54,52,4.75711,-1.9717e-06
55,52,4.80633,-1.70613e-06
56,52,4.85517,-1.44811e-06
57,52,4.90358,-1.20021e-06
58,52,4.95153,-9.65141e-07
59,52,4.99899,-7.45838e-07
60,52,5.04593,-5.45397e-07
61,52,5.0923,-3.67092e-07
62,52,5.13807,-2.14357e-07
63,52,5.18322,-9.07637e-08
1,53,2.32507,-4.51434e-07
2,53,2.36167,-8.81137e-07
3,53,2.39883,-1.29009e-06
4,53,2.43655,-1.67924e-06
5,53,2.47483,-2.04943e-06
6,53,2.51365,-2.40145e-06
7,53,2.55303,-2.73601e-06
8,53,2.59296,-3.05369e-06
9,53,2.63343,-3.35501e-06
10,53,2.67444,-3.6404e-06
11,53,2.71598,-3.91019e-06
12,53,2.75806,-4.16467e-06
13,53,2.80066,-4.40402e-06
14,53,2.84378,-4.6284e-06
15,53,2.88741,-4.83791e-06
16,53,2.93154,-5.03257e-06
17,53,2.97617,-5.21242e-06
18,53,3.02128,-5.37742e-06
19,53,3.06687,-5.52753e-06
20,53,3.11292,-5.66268e-06
21,53,3.15943,-5.78279e-06
22,53,3.20638,-5.88777e-06
23,53,3.25376,-5.97753e-06
24,53,3.30156,-6.05196e-06
25,53,3.34976,-6.11099e-06
26,53,3.39835,-6.15452e-06
27,53,3.44731,-6.18248e-06
28,53,3.49663,-6.19484e-06
29,53,3.54628,-6.19155e-06
30,53,3.59626,-6.17261e-06
31,53,3.64654,-6.13804e-06
32,53,3.6971,-6.0879e-06
33,53,3.74792,-6.02229e-06
34,53,3.79899,-5.94133e-06
35,53,3.85027,-5.8452e-06
36,53,3.90175,-5.73414e-06
37,53,3.95341,-5.60841e-06
38,53,4.00521,-5.46837e-06
39,53,4.05714,-5.3144e-06
40,53,4.10917,-5.14698e-06
41,53,4.16127,-4.96662e-06
42,53,4.21342,-4.77395e-06
43,53,4.26558,-4.56965e-06
44,53,4.31774,-4.35448e-06
45,53,4.36985,-4.12932e-06
46,53,4.4219,-3.89513e-06
47,53,4.47384,-3.65295e-06
48,53,4.52566,-3.40396e-06
49,53,4.57731,-3.14946e-06
50,53,4.62877,-2.89083e-06
51,53,4.68001,-2.62964e-06
52,53,4.73098,-2.36755e-06
53,53,4.78167,-2.10641e-06
54,53,4.83202,-1.84822e-06
55,53,4.88202,-1.59513e-06
56,53,4.93162,-1.3495e-06
57,53,4.9808,-1.11387e-06
58,53,5.0295,-8.90986e-07
59,53,5.07771,-6.83786e-07
60,53,5.12539,-4.95425e-07
61,53,5.17249,-3.29252e-07
62,53,5.21899,-1.88802e-07
63,53,5.26484,-7.7775e-08
1,54,2.36168,-4.3028e-07
2,54,2.39886,-8.38663e-07
3,54,2.43661,-1.22631e-06
4,54,2.47492,-1.59433e-06
5,54,2.5138,-1.94373e-06
6,54,2.55324,-2.27542e-06
7,54,2.59323,-2.59019e-06
8,54,2.63379,-2.88873e-06
9,54,2.6749,-3.17162e-06
10,54,2.71655,-3.43933e-06
11,54,2.75875,-3.69226e-06
12,54,2.80149,-3.93069e-06
13,54,2.84476,-4.15487e-06
14,54,2.88856,-4.36496e-06
15,54,2.93288,-4.56106e-06
16,54,2.9777,-4.74324e-06
17,54,3.02303,-4.91152e-06
18,54,3.06886,-5.06588e-06
19,54,3.11516,-5.20629e-06
20,54,3.16194,-5.33268e-06
21,54,3.20918,-5.44498e-06
22,54,3.25688,-5.54311e-06
23,54,3.305,-5.62697e-06
24,54,3.35355,-5.69647e-06
25,54,3.40251,-5.75151e-06
26,54,3.45187,-5.79202e-06
27,54,3.5016,-5.81792e-06
28,54,3.55169,-5.82916e-06
29,54,3.60213,-5.82571e-06
30,54,3.65289,-5.80754e-06
31,54,3.70396,-5.77467e-06
32,54,3.75532,-5.72715e-06
33,54,3.80695,-5.66506e-06
34,54,3.85881,-5.58852e-06
35,54,3.91091,-5.49767e-06
36,54,3.9632,-5.39273e-06
37,54,4.01567,-5.27396e-06
38,54,4.06829,-5.14165e-06
39,54,4.12103,-4.99619e-06
40,54,4.17388,-4.83798e-06
41,54,4.2268,-4.66754e-06
42,54,4.27977,-4.48542e-06
43,54,4.33275,-4.29226e-06
44,54,4.38573,-4.0888e-06
45,54,4.43867,-3.87583e-06
46,54,4.49153,-3.65426e-06
47,54,4.5443,-3.42509e-06
48,54,4.59693,-3.18942e-06
49,54,4.64939,-2.94848e-06
50,54,4.70167,-2.70361e-06
51,54,4.75371,-2.45628e-06
52,54,4.80549,-2.20811e-06
53,54,4.85697,-1.96087e-06
54,54,4.90812,-1.7165e-06
55,54,4.9589,-1.47711e-06
56,54,5.00929,-1.24501e-06
57,54,5.05923,-1.02272e-06
58,54,5.10871,-8.1297e-07
59,54,5.15768,-6.18733e-07
60,54,5.2061,-4.43207e-07
61,54,5.25395,-2.89824e-07
62,54,5.30117,-1.62237e-07
63,54,5.34775,-6.42944e-08
1,55,2.39887,-4.06661e-07
2,55,2.43664,-7.9129e-07
3,55,2.47498,-1.15527e-06
4,55,2.5139,-1.49989e-06
5,55,2.55338,-1.82633e-06
6,55,2.59344,-2.13562e-06
7,55,2.63407,-2.42869e-06
8,55,2.67527,-2.70628e-06
9,55,2.71702,-2.96905e-06
10,55,2.75933,-3.21752e-06
11,55,2.8022,-3.45211e-06
12,55,2.84561,-3.67316e-06
13,55,2.88956,-3.8809e-06
14,55,2.93405,-4.07553e-06
15,55,2.97906,-4.25715e-06
16,55,3.0246,-4.42586e-06
17,55,3.07064,-4.58166e-06
18,55,3.11718,-4.72457e-06
19,55,3.16422,-4.85454e-06
20,55,3.21174,-4.97152e-06
21,55,3.25972,-5.07544e-06
22,55,3.30816,-5.16622e-06
23,55,3.35705,-5.24377e-06
24,55,3.40637,-5.30799e-06
25,55,3.4561,-5.3588e-06
26,55,3.50623,-5.39612e-06
27,55,3.55674,-5.41986e-06
28,55,3.60763,-5.42998e-06
29,55,3.65886,-5.42644e-06
30,55,3.71042,-5.4092e-06
31,55,3.76229,-5.37829e-06
32,55,3.81446,-5.33372e-06
33,55,3.8669,-5.27557e-06
34,55,3.91958,-5.20393e-06
35,55,3.97249,-5.11895e-06
36,55,4.02561,-5.02081e-06
37,55,4.0789,-4.90973e-06
38,55,4.13235,-4.786e-06
39,55,4.18593,-4.64994e-06
40,55,4.23961,-4.50195e-06
41,55,4.29336,-4.34248e-06
42,55,4.34717,-4.17205e-06
43,55,4.40099,-3.99124e-06
44,55,4.4548,-3.80074e-06
45,55,4.50856,-3.60128e-06
46,55,4.56226,-3.3937e-06
47,55,4.61586,-3.17895e-06
48,55,4.66932,-2.95804e-06
49,55,4.72261,-2.73213e-06
50,55,4.77571,-2.50249e-06
51,55,4.82857,-2.2705e-06
52,55,4.88116,-2.0377e-06
53,55,4.93345,-1.80579e-06
54,55,4.98541,-1.57662e-06
55,55,5.03699,-1.35223e-06
56,55,5.08817,-1.13489e-06
57,55,5.1389,-9.27059e-07
58,55,5.18916,-7.31457e-07
59,55,5.2389,-5.51056e-07
60,55,5.28808,-3.89103e-07
61,55,5.33668,-2.49117e-07
62,55,5.38466,-1.34888e-07
63,55,5.43197,-5.04413e-08
1,56,2.43665,-3.80327e-07
2,56,2.47501,-7.38531e-07
3,56,2.51396,-1.07625e-06
4,56,2.55348,-1.39501e-06
5,56,2.59359,-1.69617e-06
6,56,2.63429,-1.9809e-06
7,56,2.67555,-2.25022e-06
8,56,2.7174,-2.50499e-06
9,56,2.75981,-2.74589e-06
10,56,2.80279,-2.97349e-06
11,56,2.84633,-3.18824e-06
12,56,2.89042,-3.3905e-06
13,56,2.93507,-3.58052e-06
14,56,2.98025,-3.75849e-06
15,56,3.02598,-3.92454e-06
16,56,3.07223,-4.07876e-06
17,56,3.119,-4.22117e-06
18,56,3.16627,-4.35178e-06
19,56,3.21405,-4.47056e-06
20,56,3.26232,-4.57746e-06
21,56,3.31106,-4.67241e-06
22,56,3.36026,-4.75533e-06
23,56,3.40992,-4.82614e-06
24,56,3.46001,-4.88475e-06
25,56,3.51052,-4.93107e-06
26,56,3.56144,-4.96501e-06
27,56,3.61275,-4.98652e-06
28,56,3.66444,-4.99552e-06
29,56,3.71648,-4.99196e-06
30,56,3.76885,-4.97584e-06
31,56,3.82154,-4.94713e-06
32,56,3.87453,-4.90587e-06
33,56,3.92779,-4.8521e-06
34,56,3.98131,-4.7859e-06
35,56,4.03505,-4.70741e-06
36,56,4.089,-4.61677e-06
37,56,4.14314,-4.51419e-06
38,56,4.19743,-4.39991e-06
39,56,4.25185,-4.27423e-06
40,56,4.30637,-4.13751e-06
41,56,4.36098,-3.99014e-06
42,56,4.41562,-3.8326e-06
43,56,4.47029,-3.66544e-06
44,56,4.52495,-3.48924e-06
45,56,4.57956,-3.30471e-06
46,56,4.63411,-3.1126e-06
47,56,4.68855,-2.91378e-06
48,56,4.74285,-2.70919e-06
49,56,4.79698,-2.49991e-06
50,56,4.85091,-2.28709e-06
51,56,4.90461,-2.07205e-06
52,56,4.95803,-1.85621e-06
53,56,5.01114,-1.64118e-06
54,56,5.06392,-1.42872e-06
55,56,5.11631,-1.22077e-06
56,56,5.1683,-1.01951e-06
57,56,5.21983,-8.27345e-07
58,56,5.27088,-6.46944e-07
59,56,5.3214,-4.81271e-07
60,56,5.37136,-3.33606e-07
61,56,5.42072,-2.07558e-07
62,56,5.46945,-1.07068e-07
63,56,5.51751,-3.63835e-08
1,57,2.47502,-3.50978e-07
2,57,2.51399,-6.79809e-07
3,57,2.55354,-9.88451e-07
4,57,2.5937,-1.27868e-06
5,57,2.63444,-1.55206e-06
6,57,2.67577,-1.80993e-06
7,57,2.71769,-2.05339e-06
8,57,2.76019,-2.28336e-06
9,57,2.80327,-2.50058e-06
10,57,2.84692,-2.70564e-06
11,57,2.89115,-2.89901e-06
12,57,2.93594,-3.08105e-06
13,57,2.98129,-3.25203e-06
14,57,3.02719,-3.41213e-06
15,57,3.07363,-3.56149e-06
16,57,3.12061,-3.70019e-06
17,57,3.16811,-3.82826e-06
18,57,3.21614,-3.94572e-06
19,57,3.26466,-4.05254e-06
20,57,3.31369,-4.14866e-06
21,57,3.3632,-4.23403e-06
22,57,3.41318,-4.30858e-06
23,57,3.46362,-4.37221e-06
24,57,3.5145,-4.42485e-06
25,57,3.56581,-4.46642e-06
26,57,3.61753,-4.49682e-06
27,57,3.66965,-4.51599e-06
28,57,3.72214,-4.52387e-06
29,57,3.775,-4.5204e-06
30,57,3.8282,-4.50557e-06
31,57,3.88172,-4.47935e-06
32,57,3.93555,-4.44176e-06
33,57,3.98965,-4.39284e-06
34,57,4.044,-4.33265e-06
35,57,4.0986,-4.26129e-06
36,57,4.1534,-4.17891e-06
37,57,4.20838,-4.08567e-06
38,57,4.26353,-3.98178e-06
39,57,4.31881,-3.86752e-06
40,57,4.37419,-3.74318e-06
41,57,4.42965,-3.60913e-06
42,57,4.48516,-3.46578e-06
43,57,4.54069,-3.31362e-06
44,57,4.59621,-3.15319e-06
45,57,4.65168,-2.98511e-06
46,57,4.70708,-2.81005e-06
47,57,4.76238,-2.62881e-06
48,57,4.81754,-2.44223e-06
49,57,4.87252,-2.25129e-06
50,57,4.9273,-2.05705e-06
51,57,4.98184,-1.8607e-06
52,57,5.03611,-1.66357e-06
53,57,5.09006,-1.46713e-06
54,57,5.14366,-1.27302e-06
55,57,5.19689,-1.08308e-06
56,57,5.24969,-8.99356e-07
57,57,5.30203,-7.24165e-07
58,57,5.35388,-5.60097e-07
59,57,5.4052,-4.10075e-07
60,57,5.45595,-2.7739e-07
61,57,5.50609,-1.65734e-07
62,57,5.55558,-7.92189e-08
63,57,5.6044,-2.23571e-08
1,58,2.514,-3.18244e-07
2,58,2.55358,-6.14416e-07
3,58,2.59376,-8.90866e-07
4,58,2.63454,-1.14968e-06
5,58,2.67592,-1.39264e-06
6,58,2.71791,-1.6212e-06
7,58,2.76049,-1.83658e-06
8,58,2.80366,-2.03974e-06
9,58,2.84741,-2.23142e-06
10,58,2.89176,-2.41224e-06
11,58,2.93668,-2.58266e-06
12,58,2.98217,-2.74303e-06
13,58,3.02824,-2.89362e-06
14,58,3.07486,-3.03461e-06
15,58,3.12203,-3.16614e-06
16,58,3.16975,-3.28827e-06
17,58,3.218,-3.40105e-06
18,58,3.26678,-3.50449e-06
19,58,3.31608,-3.59855e-06
20,58,3.36587,-3.6832e-06
21,58,3.41616,-3.75837e-06
22,58,3.46693,-3.824e-06
23,58,3.51816,-3.88002e-06
24,58,3.56984,-3.92633e-06
25,58,3.62196,-3.96286e-06
26,58,3.6745,-3.98954e-06
27,58,3.72744,-4.00629e-06
28,58,3.78076,-4.01305e-06
29,58,3.83445,-4.00977e-06
30,58,3.88849,-3.99642e-06
31,58,3.94285,-3.97298e-06
32,58,3.99752,-3.93946e-06
33,58,4.05247,-3.89587e-06
34,58,4.10769,-3.84228e-06
35,58,4.16314,-3.77875e-06
36,58,4.2188,-3.70542e-06
37,58,4.27466,-3.62241e-06
38,58,4.33067,-3.52991e-06
39,58,4.38682,-3.42815e-06
40,58,4.44307,-3.3174e-06
41,58,4.49941,-3.19795e-06
42,58,4.55579,-3.07018e-06
43,58,4.6122,-2.9345e-06
44,58,4.66859,-2.79139e-06
45,58,4.72494,-2.64138e-06
46,58,4.78121,-2.48509e-06
47,58,4.83738,-2.32319e-06
48,58,4.8934,-2.15645e-06
49,58,4.94926,-1.98573e-06
50,58,5.0049,-1.81196e-06
51,58,5.0603,-1.63623e-06
52,58,5.11541,-1.45971e-06
53,58,5.17022,-1.28374e-06
54,58,5.22466,-1.10982e-06
55,58,5.27872,-9.39622e-07
56,58,5.33236,-7.75059e-07
57,58,5.38553,-6.18292e-07
58,58,5.43819,-4.71794e-07
59,58,5.49032,-3.38401e-07
60,58,5.54186,-2.21374e-07
61,58,5.5928,-1.24464e-07
62,58,5.64307,-5.19603e-08
63,58,5.69265,-8.69917e-09
1,59,2.55359,-2.81649e-07
2,59,2.59379,-5.41457e-07
3,59,2.6346,-7.82282e-07
4,59,2.67603,-1.00656e-06
5,59,2.71806,-1.21627e-06
6,59,2.76071,-1.41301e-06
7,59,2.80396,-1.59803e-06
8,59,2.84781,-1.7723e-06
9,59,2.89225,-1.93656e-06
10,59,2.9373,-2.09142e-06
11,59,2.98292,-2.2373e-06
12,59,3.02914,-2.37454e-06
13,59,3.07592,-2.50339e-06
14,59,3.12328,-2.62402e-06
15,59,3.1712,-2.73655e-06
16,59,3.21967,-2.84106e-06
17,59,3.26868,-2.93756e-06
18,59,3.31823,-3.02608e-06
19,59,3.3683,-3.10658e-06
20,59,3.41888,-3.17903e-06
21,59,3.46996,-3.24338e-06
22,59,3.52152,-3.29955e-06
23,59,3.57356,-3.34748e-06
24,59,3.62606,-3.38709e-06
25,59,3.679,-3.41832e-06
26,59,3.73236,-3.44108e-06
27,59,3.78614,-3.45532e-06
28,59,3.8403,-3.46096e-06
29,59,3.89484,-3.45797e-06
30,59,3.94972,-3.44631e-06
31,59,4.00494,-3.42596e-06
32,59,4.06047,-3.3969e-06
33,59,4.11629,-3.35917e-06
34,59,4.17238,-3.31279e-06
35,59,4.2287,-3.25783e-06
36,59,4.28524,-3.19438e-06
37,59,4.34197,-3.12255e-06
38,59,4.39887,-3.0425e-06
39,59,4.4559,-2.9544e-06
40,59,4.51304,-2.85849e-06
41,59,4.57026,-2.75502e-06
42,59,4.62754,-2.64429e-06
43,59,4.68483,-2.52667e-06
44,59,4.74211,-2.40254e-06
45,59,4.79934,-2.27237e-06
46,59,4.8565,-2.13668e-06
47,59,4.91356,-1.99604e-06
48,59,4.97046,-1.85112e-06
49,59,5.0272,-1.70264e-06
50,59,5.08371,-1.55143e-06
51,59,5.13998,-1.39841e-06
52,59,5.19597,-1.24462e-06
53,59,5.25164,-1.09121e-06
54,59,5.30694,-9.39507e-07
55,59,5.36185,-7.91007e-07
56,59,5.41633,-6.47419e-07
57,59,5.47034,-5.10713e-07
58,59,5.52383,-3.83174e-07
59,59,5.57678,-2.67484e-07
60,59,5.62914,-1.66803e-07
61,59,5.68087,-8.48857e-08
62,59,5.73194,-2.61796e-08
63,59,5.7823,4.09853e-09
1,60,2.5938,-2.40551e-07
2,60,2.63464,-4.59769e-07
3,60,2.67609,-6.61161e-07
4,60,2.71817,-8.47536e-07
5,60,2.76087,-1.02106e-06
6,60,2.80418,-1.18337e-06
7,60,2.84811,-1.33571e-06
8,60,2.89265,-1.47901e-06
9,60,2.9378,-1.61398e-06
10,60,2.98355,-1.74114e-06
11,60,3.0299,-1.86089e-06
12,60,3.07684,-1.97354e-06
13,60,3.12436,-2.07929e-06
14,60,3.17247,-2.17831e-06
15,60,3.22114,-2.27068e-06
16,60,3.27037,-2.35648e-06
17,60,3.32016,-2.43572e-06
18,60,3.37048,-2.50841e-06
19,60,3.42134,-2.57453e-06
20,60,3.47272,-2.63405e-06
21,60,3.5246,-2.68691e-06
22,60,3.57698,-2.73305e-06
23,60,3.62984,-2.77243e-06
24,60,3.68316,-2.80496e-06
25,60,3.73693,-2.83058e-06
26,60,3.79114,-2.84924e-06
27,60,3.84576,-2.86086e-06
28,60,3.90078,-2.8654e-06
29,60,3.95617,-2.8628e-06
30,60,4.01192,-2.85304e-06
31,60,4.06801,-2.83609e-06
32,60,4.12442,-2.81193e-06
33,60,4.18112,-2.78059e-06
34,60,4.23808,-2.74208e-06
35,60,4.29529,-2.69644e-06
36,60,4.35272,-2.64376e-06
37,60,4.41035,-2.5841e-06
38,60,4.46814,-2.5176e-06
39,60,4.52607,-2.4444e-06
40,60,4.58411,-2.36468e-06
41,60,4.64224,-2.27863e-06
42,60,4.70041,-2.18652e-06
43,60,4.7586,-2.08862e-06
44,60,4.81678,-1.98526e-06
45,60,4.87492,-1.87681e-06
46,60,4.93298,-1.7637e-06
47,60,4.99093,-1.64639e-06
48,60,5.04874,-1.52543e-06
49,60,5.10636,-1.40142e-06
50,60,5.16377,-1.27503e-06
51,60,5.22093,-1.14703e-06
52,60,5.2778,-1.01828e-06
53,60,5.33434,-8.89754e-07
54,60,5.39051,-7.62557e-07
55,60,5.44629,-6.37959e-07
56,60,5.50162,-5.17424e-07
57,60,5.55648,-4.02662e-07
58,60,5.61082,-2.95696e-07
59,60,5.6646,-1.9895e-07
60,60,5.71778,-1.15373e-07
61,60,5.77033,-4.86045e-08
62,60,5.8222,-3.17542e-09
63,60,5.87336,1.52928e-08
1,61,2.63465,-1.94029e-07
2,61,2.67612,-3.67756e-07
3,61,2.71823,-5.25511e-07
4,61,2.76098,-6.70432e-07
5,61,2.80435,-8.0474e-07
6,61,2.84834,-9.30013e-07
7,61,2.89296,-1.04738e-06
8,61,2.93821,-1.15766e-06
9,61,2.98407,-1.26146e-06
10,61,3.03054,-1.35923e-06
11,61,3.07761,-1.45129e-06
12,61,3.12529,-1.53789e-06
13,61,3.17356,-1.6192e-06
14,61,3.22242,-1.69533e-06
15,61,3.27186,-1.76638e-06
16,61,3.32187,-1.83238e-06
17,61,3.37244,-1.89335e-06
18,61,3.42356,-1.9493e-06
19,61,3.47522,-2.0002e-06
20,61,3.52741,-2.04602e-06
21,61,3.58011,-2.08673e-06
22,61,3.63331,-2.12227e-06
23,61,3.687,-2.15259e-06
24,61,3.74116,-2.17764e-06
25,61,3.79578,-2.19736e-06
26,61,3.85084,-2.2117e-06
27,61,3.90632,-2.2206e-06
28,61,3.96221,-2.22402e-06
29,61,4.01847,-2.22193e-06
30,61,4.0751,-2.21428e-06
31,61,4.13208,-2.20106e-06
32,61,4.18937,-2.18225e-06
33,61,4.24696,-2.15786e-06
34,61,4.30482,-2.12789e-06
35,61,4.36294,-2.09238e-06
36,61,4.42127,-2.05138e-06
37,61,4.4798,-2.00495e-06
38,61,4.53851,-1.95317e-06
39,61,4.59735,-1.89616e-06
40,61,4.6563,-1.83404e-06
41,61,4.71534,-1.76697e-06
42,61,4.77443,-1.69513e-06
43,61,4.83354,-1.61875e-06
44,61,4.89264,-1.53805e-06
45,61,4.95169,-1.45334e-06
46,61,5.01067,-1.36493e-06
47,61,5.06953,-1.27318e-06
48,61,5.12825,-1.1785e-06
49,61,5.18678,-1.08135e-06
50,61,5.24509,-9.82268e-07
51,61,5.30315,-8.81827e-07
52,61,5.36091,-7.80698e-07
53,61,5.41834,-6.79639e-07
54,61,5.4754,-5.79518e-07
55,61,5.53206,-4.81333e-07
56,61,5.58826,-3.86251e-07
57,61,5.64398,-2.95651e-07
58,61,5.69918,-2.11192e-07
59,61,5.7538,-1.34913e-07
60,61,5.80782,-6.93799e-08
61,61,5.8612,-1.79106e-08
62,61,5.91389,1.50938e-08
63,61,5.96585,2.37016e-08
1,62,2.67614,-1.4063e-07
2,62,2.71827,-2.63122e-07
3,62,2.76104,-3.72684e-07
4,62,2.80445,-4.72516e-07
5,62,2.84851,-5.64627e-07
6,62,2.8932,-6.5033e-07
7,62,2.93852,-7.30517e-07
8,62,2.98448,-8.05811e-07
9,62,3.03106,-8.76658e-07
10,62,3.07826,-9.43382e-07
11,62,3.12608,-1.00622e-06
12,62,3.17451,-1.06534e-06
13,62,3.22354,-1.12085e-06
14,62,3.27317,-1.17286e-06
15,62,3.32339,-1.2214e-06
16,62,3.37418,-1.26651e-06
17,62,3.42555,-1.30819e-06
18,62,3.47747,-1.34646e-06
19,62,3.52995,-1.38128e-06
20,62,3.58296,-1.41263e-06
21,62,3.63649,-1.44049e-06
22,62,3.69053,-1.46482e-06
23,62,3.74506,-1.48558e-06
24,62,3.80008,-1.50273e-06
25,62,3.85556,-1.51622e-06
26,62,3.91148,-1.52603e-06
27,62,3.96784,-1.5321e-06
28,62,4.0246,-1.5344e-06
29,62,4.08175,-1.53291e-06
30,62,4.13928,-1.5276e-06
31,62,4.19715,-1.51844e-06
32,62,4.25534,-1.50543e-06
33,62,4.31384,-1.48857e-06
34,62,4.37261,-1.46785e-06
35,62,4.43164,-1.4433e-06
36,62,4.4909,-1.41495e-06
37,62,4.55035,-1.38284e-06
38,62,4.60998,-1.34701e-06
39,62,4.66975,-1.30755e-06
40,62,4.72963,-1.26453e-06
41,62,4.7896,-1.21807e-06
42,62,4.84962,-1.16827e-06
43,62,4.90966,-1.1153e-06
44,62,4.96969,-1.0593e-06
45,62,5.02967,-1.00048e-06
46,62,5.08957,-9.39047e-07
47,62,5.14936,-8.75246e-07
48,62,5.209,-8.09357e-07
49,62,5.26846,-7.41693e-07
50,62,5.32769,-6.7261e-07
51,62,5.38666,-6.02509e-07
52,62,5.44533,-5.31846e-07
53,62,5.50367,-4.61142e-07
54,62,5.56163,-3.90995e-07
55,62,5.61917,-3.22097e-07
56,62,5.67627,-2.55264e-07
57,62,5.73286,-1.91472e-07
58,62,5.78893,-1.3191e-07
59,62,5.84441,-7.8076e-08
60,62,5.89928,-3.19211e-08
61,62,5.9535,3.89766e-09
62,62,6.00702,2.55649e-08
63,62,6.0598,2.72975e-08
1,63,2.71828,-7.77611e-08
2,63,2.76107,-1.42373e-07
3,63,2.80452,-1.99106e-07
4,63,2.84862,-2.50404e-07
5,63,2.89337,-2.97576e-07
6,63,2.93876,-3.41399e-07
7,63,2.9848,-3.82376e-07
8,63,3.03148,-4.20847e-07
9,63,3.07879,-4.5705e-07
10,63,3.12674,-4.91155e-07
11,63,3.17531,-5.23282e-07
12,63,3.2245,-5.5352e-07
13,63,3.27431,-5.8193e-07
14,63,3.32472,-6.08552e-07
15,63,3.37572,-6.33412e-07
16,63,3.42732,-6.56523e-07
17,63,3.4795,-6.77891e-07
18,63,3.53224,-6.9751e-07
19,63,3.58554,-7.15372e-07
20,63,3.63938,-7.31463e-07
21,63,3.69375,-7.45764e-07
22,63,3.74865,-7.58256e-07
23,63,3.80404,-7.68917e-07
24,63,3.85992,-7.77723e-07
25,63,3.91628,-7.84653e-07
26,63,3.97308,-7.89683e-07
27,63,4.03032,-7.92792e-07
28,63,4.08798,-7.9396e-07
29,63,4.14603,-7.9317e-07
30,63,4.20446,-7.90406e-07
31,63,4.26324,-7.85657e-07
32,63,4.32235,-7.78915e-07
33,63,4.38177,-7.70177e-07
34,63,4.44147,-7.59444e-07
35,63,4.50143,-7.46722e-07
36,63,4.56162,-7.32025e-07
37,63,4.62201,-7.15371e-07
38,63,4.68257,-6.96786e-07
39,63,4.74328,-6.76304e-07
40,63,4.80411,-6.53968e-07
41,63,4.86502,-6.29829e-07
42,63,4.92599,-6.03947e-07
43,63,4.98697,-5.76394e-07
44,63,5.04795,-5.47253e-07
45,63,5.10888,-5.16619e-07
46,63,5.16972,-4.84602e-07
47,63,5.23046,-4.51324e-07
48,63,5.29103,-4.16927e-07
49,63,5.35142,-3.81569e-07
50,63,5.41159,-3.45432e-07
51,63,5.47149,-3.08718e-07
52,63,5.53108,-2.71661e-07
53,63,5.59034,-2.34526e-07
54,63,5.64921,-1.97619e-07
55,63,5.70766,-1.61297e-07
56,63,5.76565,-1.2598e-07
57,63,5.82314,-9.21763e-08
58,63,5.88009,-6.05118e-08
59,63,5.93645,-3.17881e-08
60,63,5.99218,-7.07945e-09
61,63,6.04725,1.20764e-08
62,63,6.10161,2.32687e-08
63,63,6.15523,2.22167e-08
