18,1,1.34089,0.000204245
19,1,1.36111,0.000188895
20,1,1.38153,0.00017244
21,1,1.40215,0.000156464
22,1,1.42297,0.000141682
23,1,1.44398,0.000128341
24,1,1.46518,0.00011645
25,1,1.48656,0.00010591
26,1,1.50811,9.658e-05
27,1,1.52983,8.83126e-05
28,1,1.5517,8.09687e-05
29,1,1.57373,7.44238e-05
30,1,1.5959,6.85694e-05
31,1,1.61821,6.3312e-05
32,1,1.64064,5.85719e-05
33,1,1.66319,5.42811e-05
34,1,1.68584,5.03816e-05
35,1,1.7086,4.68241e-05
36,1,1.73144,4.35661e-05
37,1,1.75436,4.05714e-05
38,1,1.77734,3.78088e-05
39,1,1.80038,3.52513e-05
40,1,1.82347,3.28755e-05
41,1,1.84659,3.06611e-05
42,1,1.86972,2.85903e-05
43,1,1.89287,2.66474e-05
44,1,1.91601,2.48189e-05
45,1,1.93913,2.30924e-05
46,1,1.96223,2.14574e-05
47,1,1.98528,1.99041e-05
48,1,2.00827,1.8424e-05
49,1,2.03119,1.70094e-05
50,1,2.05402,1.56533e-05
51,1,2.07676,1.43494e-05
52,1,2.09938,1.3092e-05
53,1,2.12186,1.18758e-05
54,1,2.14421,1.06959e-05
55,1,2.16639,9.54791e-06
56,1,2.1884,8.42752e-06
57,1,2.21022,7.33077e-06
58,1,2.23184,6.25388e-06
59,1,2.25323,5.19321e-06
60,1,2.27438,4.14514e-06
61,1,2.29528,3.10606e-06
62,1,2.31591,2.07209e-06
63,1,2.33626,1.03878e-06
18,2,1.36221,0.000412766
19,2,1.38273,0.000378915
20,2,1.40345,0.000344422
21,2,1.42438,0.000311754
22,2,1.44551,0.000281943
23,2,1.46684,0.000255252
24,2,1.48836,0.00023157
25,2,1.51007,0.000210631
26,2,1.53195,0.000192119
27,2,1.554,0.000175723
28,2,1.57622,0.000161159
29,2,1.59859,0.000148178
30,2,1.6211,0.000136563
31,2,1.64375,0.000126128
32,2,1.66653,0.000116715
33,2,1.68943,0.000108191
34,2,1.71244,0.000100442
35,2,1.73555,9.33683e-05
36,2,1.75875,8.68882e-05
37,2,1.78202,8.09296e-05
38,2,1.80537,7.54308e-05
39,2,1.82877,7.03386e-05
40,2,1.85222,6.56068e-05
41,2,1.8757,6.1195e-05
42,2,1.8992,5.70682e-05
43,2,1.9227,5.31954e-05
44,2,1.94621,4.95495e-05
45,2,1.96969,4.61064e-05
46,2,1.99315,4.28449e-05
47,2,2.01656,3.97458e-05
48,2,2.03991,3.67921e-05
49,2,2.06319,3.39686e-05
50,2,2.08638,3.12615e-05
51,2,2.10947,2.86581e-05
52,2,2.13245,2.61472e-05
53,2,2.15529,2.37182e-05
54,2,2.17799,2.13614e-05
55,2,2.20052,1.9068e-05
56,2,2.22287,1.68296e-05
57,2,2.24504,1.46382e-05
58,2,2.26699,1.24863e-05
59,2,2.28872,1.03668e-05
60,2,2.3102,8.27246e-06
61,2,2.33143,6.19628e-06
62,2,2.35239,4.13093e-06
63,2,2.37305,2.0685e-06
18,3,1.38387,0.000626819
19,3,1.40469,0.000569595
20,3,1.42572,0.0005146
21,3,1.44696,0.000464208
22,3,1.46841,0.000419105
23,3,1.49006,0.000379174
24,3,1.51191,0.000343969
25,3,1.53395,0.000312946
26,3,1.55617,0.000285562
27,3,1.57856,0.000261322
28,3,1.60112,0.000239789
29,3,1.62383,0.000220588
30,3,1.64669,0.000203397
31,3,1.6697,0.000187942
32,3,1.69283,0.000173991
33,3,1.71609,0.000161348
34,3,1.73946,0.000149845
35,3,1.76293,0.00013934
36,3,1.78649,0.000129708
37,3,1.81013,0.000120847
38,3,1.83384,0.000112665
39,3,1.8576,0.000105084
40,3,1.88142,9.80354e-05
41,3,1.90526,9.14607e-05
42,3,1.92913,8.5308e-05
43,3,1.95301,7.95316e-05
44,3,1.97688,7.40915e-05
45,3,2.00073,6.89521e-05
46,3,2.02456,6.4082e-05
47,3,2.04834,5.9453e-05
48,3,2.07205,5.50399e-05
49,3,2.0957,5.08201e-05
50,3,2.11925,4.67731e-05
51,3,2.14271,4.28803e-05
52,3,2.16604,3.91249e-05
53,3,2.18924,3.54912e-05
54,3,2.21229,3.1965e-05
55,3,2.23518,2.8533e-05
56,3,2.25789,2.51827e-05
57,3,2.2804,2.19024e-05
58,3,2.30269,1.86811e-05
59,3,2.32476,1.5508e-05
60,3,2.34659,1.23727e-05
61,3,2.36815,9.26481e-06
62,3,2.38943,6.17402e-06
63,3,2.41042,3.08953e-06
18,4,1.40587,0.000844076
19,4,1.42699,0.000758068
20,4,1.44833,0.000680194
21,4,1.46989,0.000611393
22,4,1.49166,0.000551115
23,4,1.51364,0.00049839
24,4,1.53582,0.000452208
25,4,1.5582,0.000411643
26,4,1.58076,0.000375883
27,4,1.6035,0.000344235
28,4,1.6264,0.00031611
29,4,1.64947,0.00029101
30,4,1.67269,0.000268516
31,4,1.69605,0.000248272
32,4,1.71954,0.000229981
33,4,1.74316,0.000213386
34,4,1.76689,0.000198273
35,4,1.79073,0.000184456
36,4,1.81466,0.000171779
37,4,1.83867,0.000160105
38,4,1.86275,0.000149317
39,4,1.88689,0.000139314
40,4,1.91107,0.000130008
41,4,1.93529,0.000121322
42,4,1.95954,0.000113188
43,4,1.98379,0.000105547
44,4,2.00803,9.83471e-05
45,4,2.03226,9.1542e-05
46,4,2.05646,8.50904e-05
47,4,2.08061,7.89555e-05
48,4,2.1047,7.31044e-05
49,4,2.12872,6.75075e-05
50,4,2.15264,6.21379e-05
51,4,2.17646,5.69712e-05
52,4,2.20016,5.19853e-05
53,4,2.22373,4.71598e-05
54,4,2.24714,4.24758e-05
55,4,2.27039,3.7916e-05
56,4,2.29345,3.34639e-05
57,4,2.31631,2.91042e-05
58,4,2.33896,2.48223e-05
59,4,2.36138,2.06041e-05
60,4,2.38354,1.64362e-05
61,4,2.40544,1.23052e-05
62,4,2.42706,8.1978e-06
63,4,2.44838,4.10061e-06
18,5,1.42821,0.00105797
19,5,1.44963,0.000938425
20,5,1.47128,0.000836738
21,5,1.49316,0.000750075
22,5,1.51527,0.000675594
23,5,1.53758,0.000611086
24,5,1.56011,0.000554853
25,5,1.58282,0.000505555
26,5,1.60573,0.000462114
27,5,1.62882,0.000423647
28,5,1.65208,0.000389427
29,5,1.67551,0.000358849
30,5,1.69909,0.000331406
31,5,1.72281,0.000306674
32,5,1.74667,0.000284294
33,5,1.77066,0.000263964
34,5,1.79476,0.000245424
35,5,1.81897,0.000228455
36,5,1.84327,0.000212867
37,5,1.86766,0.000198496
38,5,1.89212,0.000185204
39,5,1.91663,0.000172867
40,5,1.9412,0.000161379
41,5,1.9658,0.000150647
42,5,1.99042,0.00014059
43,5,2.01505,0.000131137
44,5,2.03968,0.000122223
45,5,2.06429,0.000113792
46,5,2.08886,0.000105794
47,5,2.11339,9.81855e-05
48,5,2.13786,9.09249e-05
49,5,2.16225,8.39764e-05
50,5,2.18656,7.73071e-05
51,5,2.21075,7.08874e-05
52,5,2.23482,6.469e-05
53,5,2.25876,5.86899e-05
54,5,2.28254,5.2864e-05
55,5,2.30615,4.7191e-05
56,5,2.32958,4.16507e-05
57,5,2.3528,3.62244e-05
58,5,2.3758,3.08941e-05
59,5,2.39857,2.56427e-05
60,5,2.42108,2.04537e-05
61,5,2.44333,1.53108e-05
62,5,2.46529,1.01982e-05
63,5,2.48694,5.09986e-06
17,6,1.42947,0.00148958
18,6,1.45089,0.0012578
19,6,1.4726,0.00110095
20,6,1.49458,0.000978276
21,6,1.51679,0.000876598
22,6,1.53923,0.000790121
23,6,1.56189,0.000715529
24,6,1.58476,0.000650584
25,6,1.60783,0.000593634
26,6,1.63109,0.000543393
27,6,1.65454,0.000498836
28,6,1.67816,0.000459126
29,6,1.70195,0.000423574
30,6,1.7259,0.000391607
31,6,1.74999,0.000362745
32,6,1.77423,0.000336581
33,6,1.79859,0.000312773
34,6,1.82307,0.000291027
35,6,1.84766,0.000271094
36,6,1.87234,0.000252757
37,6,1.8971,0.00023583
38,6,1.92194,0.000220155
39,6,1.94685,0.000205589
40,6,1.9718,0.000192011
41,6,1.99678,0.000179315
42,6,2.02179,0.000167407
43,6,2.04681,0.000156203
44,6,2.07182,0.00014563
45,6,2.09681,0.000135622
46,6,2.12178,0.000126123
47,6,2.14669,0.000117079
48,6,2.17154,0.000108444
49,6,2.19632,0.000100175
50,6,2.221,9.22345e-05
51,6,2.24558,8.45875e-05
52,6,2.27003,7.7202e-05
53,6,2.29434,7.00489e-05
54,6,2.31849,6.31009e-05
55,6,2.34248,5.6333e-05
56,6,2.36627,4.97217e-05
57,6,2.38986,4.32449e-05
58,6,2.41322,3.68815e-05
59,6,2.43634,3.06115e-05
60,6,2.45921,2.44155e-05
61,6,2.48181,1.82748e-05
62,6,2.50411,1.21707e-05
63,6,2.52611,6.08521e-06
17,7,1.45202,0.00155222
18,7,1.47384,0.00138271
19,7,1.4959,0.00122931
20,7,1.51822,0.00109884
21,7,1.54077,0.000987943
22,7,1.56356,0.000892783
23,7,1.58657,0.000810346
24,7,1.60979,0.000738344
25,7,1.63322,0.000675025
26,7,1.65685,0.000619012
27,7,1.68066,0.000569199
28,7,1.70465,0.000524688
29,7,1.72881,0.000484737
30,7,1.75313,0.000448727
31,7,1.7776,0.000416139
32,7,1.80221,0.000386535
33,7,1.82695,0.000359542
34,7,1.85182,0.00033484
35,7,1.87679,0.000312157
36,7,1.90186,0.000291256
37,7,1.92701,0.000271935
38,7,1.95224,0.000254015
39,7,1.97753,0.000237342
40,7,2.00287,0.000221781
41,7,2.02825,0.000207214
42,7,2.05365,0.000193536
43,7,2.07906,0.000180654
44,7,2.10447,0.000168486
45,7,2.12985,0.000156959
46,7,2.15521,0.000146008
47,7,2.18051,0.000135575
48,7,2.20576,0.000125606
49,7,2.23092,0.000116054
50,7,2.25599,0.000106876
51,7,2.28095,9.80323e-05
52,7,2.30579,8.94865e-05
53,7,2.33048,8.12057e-05
54,7,2.35501,7.31592e-05
55,7,2.37937,6.53183e-05
56,7,2.40354,5.76563e-05
57,7,2.4275,5.01481e-05
58,7,2.45123,4.27698e-05
59,7,2.47472,3.54986e-05
60,7,2.49794,2.83126e-05
61,7,2.52089,2.11904e-05
62,7,2.54355,1.41112e-05
63,7,2.56589,7.05452e-06
17,8,1.47498,0.00167235
18,8,1.49714,0.00149154
19,8,1.51955,0.00133477
20,8,1.54221,0.00119986
21,8,1.56512,0.00108357
22,8,1.58826,0.000982747
23,8,1.61163,0.000894749
24,8,1.63521,0.000817445
25,8,1.65901,0.000749135
26,8,1.683,0.000688452
27,8,1.70718,0.000634284
28,8,1.73155,0.000585714
29,8,1.75608,0.000541981
30,8,1.78078,0.000502447
31,8,1.80564,0.000466573
32,8,1.83063,0.000433901
33,8,1.85576,0.000404041
34,8,1.88102,0.000376657
35,8,1.90638,0.000351459
36,8,1.93184,0.000328199
37,8,1.95739,0.000306658
38,8,1.98301,0.000286648
39,8,2.0087,0.000268003
40,8,2.03444,0.000250577
41,8,2.06021,0.000234242
42,8,2.08601,0.000218885
43,8,2.11182,0.000204406
44,8,2.13763,0.000190716
45,8,2.16341,0.000177734
46,8,2.18916,0.00016539
47,8,2.21487,0.000153618
48,8,2.24051,0.000142363
49,8,2.26607,0.000131569
50,8,2.29153,0.000121191
51,8,2.31688,0.000111185
52,8,2.34211,0.000101511
53,8,2.36719,9.21316e-05
54,8,2.39211,8.30133e-05
55,8,2.41685,7.41243e-05
56,8,2.4414,6.54351e-05
57,8,2.46573,5.69176e-05
58,8,2.48983,4.85453e-05
59,8,2.51369,4.02929e-05
60,8,2.53728,3.21361e-05
61,8,2.56059,2.40512e-05
62,8,2.5836,1.60153e-05
63,8,2.60629,8.00571e-06
16,9,1.47609,0.00201325
17,9,1.49828,0.001765
18,9,1.52077,0.00157634
19,9,1.54354,0.0014184
20,9,1.56656,0.00128228
21,9,1.58983,0.00116374
22,9,1.61333,0.00105991
23,9,1.63707,0.000968481
24,9,1.66102,0.000887573
25,9,1.68519,0.00081564
26,9,1.70955,0.000751402
27,9,1.73411,0.000693794
28,9,1.75886,0.000641927
29,9,1.78378,0.000595051
30,9,1.80887,0.000552531
31,9,1.83411,0.000513828
32,9,1.8595,0.000478479
33,9,1.88502,0.000446087
34,9,1.91067,0.000416308
35,9,1.93643,0.000388847
36,9,1.96229,0.000363443
37,9,1.98824,0.000339872
38,9,2.01427,0.000317937
39,9,2.04036,0.000297464
40,9,2.0665,0.0002783
41,9,2.09268,0.00026031
42,9,2.11888,0.000243375
43,9,2.1451,0.000227387
44,9,2.17131,0.000212253
45,9,2.1975,0.000197886
46,9,2.22366,0.000184211
47,9,2.24976,0.000171159
48,9,2.2758,0.000158667
49,9,2.30177,0.000146679
50,9,2.32763,0.000135143
51,9,2.35338,0.000124013
52,9,2.379,0.000113245
53,9,2.40448,0.0001028
54,9,2.42979,9.26396e-05
55,9,2.45492,8.27305e-05
56,9,2.47985,7.30401e-05
57,9,2.50457,6.35379e-05
58,9,2.52905,5.41949e-05
59,9,2.55328,4.49837e-05
60,9,2.57724,3.58777e-05
61,9,2.60092,2.68512e-05
62,9,2.62429,1.78791e-05
63,9,2.64734,8.93678e-06
15,10,1.47684,0.00209515
16,10,1.49926,0.001974
17,10,1.52188,0.00179806
18,10,1.54475,0.00163044
19,10,1.56789,0.00148024
20,10,1.59127,0.00134712
21,10,1.61491,0.00122925
22,10,1.63879,0.0011247
23,10,1.66289,0.00103171
24,10,1.68722,0.000948751
25,10,1.71177,0.000874474
26,10,1.73652,0.000807744
27,10,1.76147,0.000747588
28,10,1.7866,0.000693172
29,10,1.81191,0.000643787
30,10,1.83739,0.000598822
31,10,1.86303,0.000557752
32,10,1.88882,0.000520123
33,10,1.91474,0.000485542
34,10,1.94079,0.000453666
35,10,1.96695,0.000424198
36,10,1.99322,0.000396876
37,10,2.01958,0.000371473
38,10,2.04601,0.000347785
39,10,2.07251,0.000325636
40,10,2.09907,0.000304868
41,10,2.12566,0.000285343
42,10,2.15227,0.000266934
43,10,2.1789,0.000249532
44,10,2.20552,0.000233038
45,10,2.23212,0.000217362
46,10,2.25869,0.000202424
47,10,2.2852,0.000188151
48,10,2.31166,0.000174478
49,10,2.33803,0.000161345
50,10,2.3643,0.000148697
51,10,2.39045,0.000136485
52,10,2.41648,0.000124662
53,10,2.44235,0.000113186
54,10,2.46806,0.000102017
55,10,2.49358,9.11178e-05
56,10,2.51891,8.04548e-05
57,10,2.54401,6.99949e-05
58,10,2.56888,5.9707e-05
59,10,2.59349,4.95615e-05
60,10,2.61783,3.95299e-05
61,10,2.64188,2.95846e-05
62,10,2.66562,1.96987e-05
63,10,2.68903,9.84588e-06
15,11,1.50013,0.00216592
16,11,1.52285,0.00198955
17,11,1.54584,0.00182284
18,11,1.56909,0.00166715
19,11,1.5926,0.00152503
20,11,1.61636,0.00139674
21,11,1.64038,0.00128145
22,11,1.66463,0.00117794
23,11,1.68912,0.00108495
24,11,1.71383,0.00100126
25,11,1.73876,0.000925786
26,11,1.7639,0.000857538
27,11,1.78924,0.000795664
28,11,1.81477,0.000739411
29,11,1.84048,0.000688128
30,11,1.86636,0.000641243
31,11,1.8924,0.00059826
32,11,1.91859,0.000558744
33,11,1.94492,0.000522315
34,11,1.97138,0.00048864
35,11,1.99796,0.000457426
36,11,2.02463,0.000428414
37,11,2.05141,0.000401378
38,11,2.07826,0.000376115
39,11,2.10517,0.000352447
40,11,2.13214,0.000330215
41,11,2.15915,0.000309276
42,11,2.18618,0.000289505
43,11,2.21323,0.000270787
44,11,2.24027,0.000253021
45,11,2.26729,0.000236114
46,11,2.29427,0.000219984
47,11,2.32121,0.000204556
48,11,2.34807,0.00018976
49,11,2.37486,0.000175536
50,11,2.40154,0.000161824
51,11,2.42811,0.000148574
52,11,2.45454,0.000135737
53,11,2.48082,0.000123268
54,11,2.50693,0.000111125
55,11,2.53286,9.92692e-05
56,11,2.55858,8.76644e-05
57,11,2.58408,7.62758e-05
58,11,2.60934,6.50705e-05
59,11,2.63434,5.40172e-05
60,11,2.65906,4.30855e-05
61,11,2.68348,3.22462e-05
62,11,2.7076,2.14708e-05
63,11,2.73138,1.07313e-05
14,12,1.50094,0.00237744
15,12,1.52373,0.00217064
16,12,1.54681,0.00199545
17,12,1.57017,0.00183663
18,12,1.59379,0.00169032
19,12,1.61768,0.00155599
20,12,1.64183,0.00143338
21,12,1.66623,0.00132188
22,12,1.69087,0.00122069
23,12,1.71575,0.00112891
24,12,1.74085,0.0010456
25,12,1.76617,0.000969891
26,12,1.79171,0.000900984
27,12,1.81745,0.000838141
28,12,1.84338,0.000780706
29,12,1.86949,0.000728094
30,12,1.89578,0.000679787
31,12,1.92223,0.000635324
32,12,1.94883,0.000594301
33,12,1.97558,0.000556358
34,12,2.00245,0.000521176
35,12,2.02944,0.000488474
36,12,2.05654,0.000458
37,12,2.08373,0.000429532
38,12,2.111,0.000402873
39,12,2.13834,0.000377844
40,12,2.16574,0.000354288
41,12,2.19317,0.000332062
42,12,2.22063,0.00031104
43,12,2.2481,0.000291107
44,12,2.27556,0.00027216
45,12,2.30301,0.000254105
46,12,2.33041,0.000236857
47,12,2.35777,0.00022034
48,12,2.38506,0.000204483
49,12,2.41227,0.000189222
50,12,2.43937,0.000174499
51,12,2.46635,0.000160258
52,12,2.4932,0.000146449
53,12,2.5199,0.000133027
54,12,2.54642,0.000119947
55,12,2.57275,0.00010717
56,12,2.59888,9.46557e-05
57,12,2.62478,8.23693e-05
58,12,2.65043,7.02761e-05
59,12,2.67583,5.8343e-05
60,12,2.70094,4.65384e-05
61,12,2.72575,3.48315e-05
62,12,2.75024,2.31923e-05
63,12,2.77439,1.15915e-05
13,13,1.50157,0.00248263
14,13,1.52448,0.00231445
15,13,1.54766,0.00214377
16,13,1.57113,0.001985
17,13,1.59487,0.00183794
18,13,1.61888,0.00170152
19,13,1.64315,0.00157528
20,13,1.66769,0.00145892
21,13,1.69248,0.00135203
22,13,1.71751,0.00125407
23,13,1.74278,0.0011644
24,13,1.76828,0.00108235
25,13,1.79401,0.00100722
26,13,1.81995,0.000938391
27,13,1.84609,0.000875237
28,13,1.87243,0.000817203
29,13,1.89896,0.000763781
30,13,1.92566,0.00071451
31,13,1.95252,0.000668974
32,13,1.97955,0.000626803
33,13,2.00671,0.000587664
34,13,2.03401,0.000551257
35,13,2.06142,0.000517316
36,13,2.08895,0.000485602
37,13,2.11657,0.000455901
38,13,2.14427,0.000428021
39,13,2.17204,0.000401789
40,13,2.19986,0.00037705
41,13,2.22772,0.000353664
42,13,2.25561,0.000331505
43,13,2.28351,0.00031046
44,13,2.31141,0.000290424
45,13,2.33929,0.000271304
46,13,2.36713,0.000253014
47,13,2.39491,0.000235477
48,13,2.42263,0.000218622
49,13,2.45026,0.000202382
50,13,2.47779,0.000186699
51,13,2.5052,0.000171515
52,13,2.53247,0.000156781
53,13,2.55959,0.000142447
54,13,2.58653,0.000128469
55,13,2.61327,0.000114806
56,13,2.63981,0.000101417
57,13,2.66612,8.82655e-05
58,13,2.69218,7.53152e-05
59,13,2.71797,6.2532e-05
60,13,2.74347,4.9883e-05
61,13,2.76867,3.73362e-05
62,13,2.79355,2.48605e-05
63,13,2.81808,1.24252e-05
12,14,1.5021,0.00257057
13,14,1.5251,0.0024068
14,14,1.54839,0.00225397
15,14,1.57196,0.00210503
16,14,1.59582,0.00196286
17,14,1.61994,0.00182862
18,14,1.64435,0.00170256
19,14,1.66901,0.00158471
20,14,1.69394,0.00147502
21,14,1.71913,0.00137328
22,14,1.74456,0.00127919
23,14,1.77024,0.00119232
24,14,1.79614,0.00111218
25,14,1.82228,0.0010383
26,14,1.84863,0.000970142
27,14,1.87518,0.000907237
28,14,1.90194,0.000849115
29,14,1.92888,0.000795343
30,14,1.956,0.000745522
31,14,1.98329,0.000699285
32,14,2.01074,0.000656299
33,14,2.03833,0.000616261
34,14,2.06606,0.000578896
35,14,2.0939,0.000543955
36,14,2.12186,0.000511215
37,14,2.14991,0.000480472
38,14,2.17805,0.000451543
39,14,2.20626,0.000424263
40,14,2.23452,0.00039848
41,14,2.26282,0.000374059
42,14,2.29115,0.000350876
43,14,2.31949,0.00032882
44,14,2.34782,0.000307788
45,14,2.37614,0.000287687
46,14,2.40441,0.000268433
47,14,2.43264,0.000249946
48,14,2.46079,0.000232156
49,14,2.48886,0.000214996
50,14,2.51682,0.000198407
51,14,2.54466,0.000182331
52,14,2.57236,0.000166716
53,14,2.5999,0.000151514
54,14,2.62726,0.000136679
55,14,2.65443,0.000122168
56,14,2.68139,0.000107939
57,14,2.70811,9.39561e-05
58,14,2.73457,8.01808e-05
59,14,2.76077,6.65784e-05
60,14,2.78668,5.31148e-05
61,14,2.81227,3.97571e-05
62,14,2.83754,2.6473e-05
63,14,2.86246,1.32311e-05
10,15,1.47956,0.00259163
11,15,1.50246,0.00254743
12,15,1.52559,0.00244603
13,15,1.54899,0.00232007
14,15,1.57267,0.00218961
15,15,1.59664,0.00205953
16,15,1.62088,0.00193282
17,15,1.64541,0.00181115
18,15,1.67021,0.0016954
19,15,1.69527,0.00158601
20,15,1.7206,0.00148318
21,15,1.74619,0.00138692
22,15,1.77203,0.00129711
23,15,1.79812,0.00121351
24,15,1.82443,0.00113581
25,15,1.85098,0.00106365
26,15,1.87775,0.000996672
27,15,1.90472,0.000934479
28,15,1.9319,0.000876701
29,15,1.95927,0.00082298
30,15,1.98682,0.000772975
31,15,2.01454,0.000726371
32,15,2.04242,0.000682873
33,15,2.07045,0.00064221
34,15,2.09861,0.000604135
35,15,2.12689,0.000568419
36,15,2.15529,0.000534854
37,15,2.18379,0.000503253
38,15,2.21237,0.00047344
39,15,2.24101,0.00044526
40,15,2.26972,0.000418569
41,15,2.29847,0.000393235
42,15,2.32724,0.00036914
43,15,2.35603,0.000346175
44,15,2.38481,0.000324239
45,15,2.41357,0.000303241
46,15,2.44229,0.000283098
47,15,2.47096,0.000263731
48,15,2.49955,0.000245071
49,15,2.52806,0.000227051
50,15,2.55646,0.00020961
51,15,2.58474,0.000192693
52,15,2.61287,0.000176245
53,15,2.64085,0.000160218
54,15,2.66864,0.000144566
55,15,2.69624,0.000129246
56,15,2.72362,0.000114215
57,15,2.75076,9.94343e-05
58,15,2.77764,8.48672e-05
59,15,2.80425,7.04773e-05
60,15,2.83056,5.62298e-05
61,15,2.85656,4.20911e-05
62,15,2.88223,2.8028e-05
63,15,2.90754,1.40084e-05
9,16,1.47993,0.0027059
10,16,1.50277,0.00254305
11,16,1.52598,0.0024452
12,16,1.54948,0.00234606
13,16,1.57327,0.00223786
14,16,1.59734,0.0021249
15,16,1.6217,0.00201069
16,16,1.64634,0.00189775
17,16,1.67127,0.00178779
18,16,1.69647,0.00168191
19,16,1.72194,0.00158078
20,16,1.74768,0.00148479
21,16,1.77368,0.00139414
22,16,1.79993,0.00130884
23,16,1.82643,0.00122882
24,16,1.85317,0.00115391
25,16,1.88013,0.00108387
26,16,1.90732,0.00101844
27,16,1.93473,0.000957333
28,16,1.96234,0.000900258
29,16,1.99014,0.000846925
30,16,2.01812,0.000797054
31,16,2.04628,0.000750376
32,16,2.0746,0.000706637
33,16,2.10306,0.000665598
34,16,2.13167,0.000627039
35,16,2.1604,0.000590755
36,16,2.18925,0.000556556
37,16,2.21819,0.000524267
38,16,2.24722,0.000493728
39,16,2.27632,0.000464791
40,16,2.30548,0.000437321
41,16,2.33468,0.000411193
42,16,2.3639,0.000386294
43,16,2.39314,0.000362518
44,16,2.42237,0.000339768
45,16,2.45158,0.000317957
46,16,2.48076,0.000297
47,16,2.50988,0.000276824
48,16,2.53892,0.000257358
49,16,2.56788,0.000238537
50,16,2.59673,0.0002203
51,16,2.62545,0.000202591
52,16,2.65403,0.000185358
53,16,2.68244,0.000168551
54,16,2.71067,0.000152125
55,16,2.7387,0.000136034
56,16,2.76651,0.000120237
57,16,2.79408,0.000104695
58,16,2.82139,8.93699e-05
59,16,2.84841,7.4225e-05
60,16,2.87514,5.92251e-05
61,16,2.90155,4.4336e-05
62,16,2.92762,2.9524e-05
63,16,2.95332,1.47562e-05
6,17,1.43487,0.00263255
7,17,1.45723,0.00255296
8,17,1.47997,0.00254246
9,17,1.503,0.00251348
10,17,1.52628,0.00242949
11,17,1.54987,0.00234427
12,17,1.57375,0.00225519
13,17,1.59793,0.00216041
14,17,1.6224,0.00206148
15,17,1.64716,0.0019606
16,17,1.6722,0.00185972
17,17,1.69753,0.00176038
18,17,1.72314,0.00166369
19,17,1.74902,0.00157043
20,17,1.77517,0.0014811
21,17,1.80159,0.00139602
22,17,1.82826,0.00131533
23,17,1.85518,0.00123906
24,17,1.88234,0.00116716
25,17,1.90974,0.0010995
26,17,1.93736,0.00103591
27,17,1.9652,0.00097618
28,17,1.99324,0.000920098
29,17,2.02148,0.000867436
30,17,2.04991,0.000817967
31,17,2.07851,0.000771469
32,17,2.10728,0.000727725
33,17,2.13619,0.000686532
34,17,2.16525,0.000647695
35,17,2.19443,0.000611031
36,17,2.22373,0.000576371
37,17,2.25313,0.000543555
38,17,2.28262,0.000512436
39,17,2.31218,0.000482877
40,17,2.34179,0.000454753
41,17,2.37145,0.000427944
42,17,2.40114,0.000402345
43,17,2.43084,0.000377853
44,17,2.46053,0.000354378
45,17,2.4902,0.000331833
46,17,2.51983,0.000310138
47,17,2.54941,0.000289221
48,17,2.57891,0.000269012
49,17,2.60833,0.000249449
50,17,2.63763,0.00023047
51,17,2.6668,0.000212022
52,17,2.69583,0.000194051
53,17,2.72469,0.000176508
54,17,2.75336,0.000159348
55,17,2.78184,0.000142527
56,17,2.81008,0.000126002
57,17,2.83808,0.000109734
58,17,2.86582,9.36856e-05
59,17,2.89327,7.78188e-05
60,17,2.92042,6.20986e-05
61,17,2.94724,4.64902e-05
62,17,2.97372,3.09598e-05
63,17,2.99983,1.54741e-05
1,18,1.34781,0.00216754
2,18,1.36903,0.00219666
3,18,1.39058,0.00224393
4,18,1.41247,0.00230525
5,18,1.43469,0.00237294
6,18,1.45723,0.00243582
7,18,1.48001,0.00242751
8,18,1.5031,0.00241027
9,18,1.52649,0.0023761
10,18,1.55016,0.00231719
11,18,1.57414,0.00224721
12,18,1.59841,0.00217005
13,18,1.62299,0.00208713
14,18,1.64785,0.00200004
15,18,1.67302,0.00191052
16,18,1.69847,0.00182017
17,18,1.72421,0.00173033
18,18,1.75023,0.00164207
19,18,1.77653,0.00155616
20,18,1.8031,0.00147319
21,18,1.82993,0.00139353
22,18,1.85703,0.00131741
23,18,1.88438,0.00124496
24,18,1.91198,0.0011762
25,18,1.93981,0.00111109
26,18,1.96787,0.00104954
27,18,1.99615,0.000991409
28,18,2.02463,0.000936546
29,18,2.05332,0.000884781
30,18,2.0822,0.000835937
31,18,2.11125,0.000789833
32,18,2.14047,0.00074629
33,18,2.16984,0.000705136
34,18,2.19936,0.000666202
35,18,2.229,0.00062933
36,18,2.25876,0.000594366
37,18,2.28862,0.00056117
38,18,2.31857,0.000529608
39,18,2.3486,0.000499553
40,18,2.37868,0.000470889
41,18,2.4088,0.000443508
42,18,2.43896,0.000417307
43,18,2.46912,0.000392192
44,18,2.49928,0.000368075
45,18,2.52942,0.000344875
46,18,2.55952,0.000322514
47,18,2.58956,0.000300923
48,18,2.61953,0.000280034
49,18,2.64941,0.000259786
50,18,2.67917,0.00024012
51,18,2.7088,0.000220982
52,18,2.73829,0.00020232
53,18,2.7676,0.000184087
54,18,2.79673,0.000166236
55,18,2.82565,0.000148723
56,18,2.85434,0.000131508
57,18,2.88278,0.000114551
58,18,2.91095,9.78125e-05
59,18,2.93884,8.12571e-05
60,18,2.96641,6.48488e-05
61,18,2.99366,4.85527e-05
62,18,3.02055,3.23348e-05
63,18,3.04707,1.61617e-05
1,19,1.36899,0.00215184
2,19,1.39053,0.00217189
3,19,1.41241,0.00220335
4,19,1.43462,0.00224214
5,19,1.45716,0.00228135
6,19,1.48001,0.00231031
7,19,1.50316,0.00231099
8,19,1.52662,0.00229503
9,19,1.55038,0.00226346
10,19,1.57444,0.002216
11,19,1.5988,0.00215734
12,19,1.62347,0.00209068
13,19,1.64844,0.00201803
14,19,1.67371,0.00194106
15,19,1.69928,0.0018613
16,19,1.72515,0.00178013
17,19,1.7513,0.00169874
18,19,1.77774,0.00161811
19,19,1.80446,0.001539
20,19,1.83146,0.00146199
21,19,1.85872,0.00138752
22,19,1.88625,0.00131586
23,19,1.91404,0.0012472
24,19,1.94207,0.00118162
25,19,1.97035,0.00111916
26,19,1.99885,0.00105978
27,19,2.02758,0.0010034
28,19,2.05652,0.000949923
29,19,2.08566,0.000899234
30,19,2.11499,0.000851194
31,19,2.1445,0.000805662
32,19,2.17418,0.000762495
33,19,2.20402,0.000721546
34,19,2.234,0.000682675
35,19,2.26411,0.000645744
36,19,2.29434,0.00061062
37,19,2.32467,0.000577177
38,19,2.35509,0.000545295
39,19,2.38559,0.000514861
40,19,2.41615,0.000485767
41,19,2.44675,0.000457912
42,19,2.47737,0.000431204
43,19,2.50801,0.000405552
44,19,2.53865,0.000380875
45,19,2.56926,0.000357094
46,19,2.59983,0.000334137
47,19,2.63035,0.000311936
48,19,2.66079,0.000290428
49,19,2.69113,0.000269552
50,19,2.72137,0.000249251
51,19,2.75147,0.000229473
52,19,2.78141,0.000210167
53,19,2.81119,0.000191287
54,19,2.84077,0.000172786
55,19,2.87015,0.000154622
56,19,2.89929,0.000136754
57,19,2.92818,0.000119143
58,19,2.9568,0.00010175
59,19,2.98512,8.45392e-05
60,19,3.01313,6.74752e-05
61,19,3.0408,5.0523e-05
62,19,3.06812,3.36487e-05
63,19,3.09506,1.68187e-05
1,20,1.39048,0.00212274
2,20,1.41235,0.00213571
3,20,1.43456,0.00215548
4,20,1.45711,0.00217862
5,20,1.47999,0.00220003
6,20,1.50318,0.0022131
7,20,1.5267,0.00221114
8,20,1.55052,0.00219541
9,20,1.57466,0.00216675
10,20,1.59911,0.00212603
11,20,1.62386,0.00207549
12,20,1.64893,0.00201732
13,20,1.67431,0.00195329
14,20,1.69998,0.0018849
15,20,1.72597,0.00181351
16,20,1.75224,0.00174034
17,20,1.77882,0.00166642
18,20,1.80568,0.00159265
19,20,1.83283,0.00151975
20,20,1.86026,0.0014483
21,20,1.88796,0.00137872
22,20,1.91593,0.00131134
23,20,1.94416,0.00124637
24,20,1.97264,0.00118396
25,20,2.00136,0.00112417
26,20,2.03032,0.00106703
27,20,2.0595,0.00101251
28,20,2.0889,0.000960544
29,20,2.1185,0.000911064
30,20,2.14829,0.00086397
31,20,2.17827,0.000819156
32,20,2.20842,0.000776507
33,20,2.23873,0.000735906
34,20,2.26918,0.000697235
35,20,2.29977,0.000660377
36,20,2.33047,0.000625219
37,20,2.36128,0.000591648
38,20,2.39218,0.00055956
39,20,2.42316,0.000528852
40,20,2.4542,0.000499427
41,20,2.48528,0.000471193
42,20,2.51639,0.000444064
43,20,2.54752,0.000417957
44,20,2.57863,0.000392795
45,20,2.60973,0.000368506
46,20,2.64078,0.00034502
47,20,2.67178,0.000322272
48,20,2.7027,0.000300202
49,20,2.73352,0.000278753
50,20,2.76423,0.000257869
51,20,2.7948,0.000237499
52,20,2.82522,0.000217595
53,20,2.85546,0.000198111
54,20,2.88551,0.000179001
55,20,2.91535,0.000160225
56,20,2.94495,0.000141741
57,20,2.97429,0.000123511
58,20,3.00336,0.000105498
59,20,3.03213,8.76655e-05
60,20,3.06058,6.9978e-05
61,20,3.08869,5.24012e-05
62,20,3.11643,3.49015e-05
63,20,3.1438,1.74454e-05
1,21,1.41231,0.00208497
2,21,1.43452,0.00209275
3,21,1.45707,0.00210424
4,21,1.47996,0.00211685
5,21,1.50319,0.00212708
6,21,1.52674,0.00213094
7,21,1.55062,0.00212506
8,21,1.57482,0.00210874
9,21,1.59934,0.00208212
10,21,1.62418,0.00204588
11,21,1.64933,0.0020013
12,21,1.6748,0.00194985
13,21,1.70058,0.00189292
14,21,1.72667,0.00183176
15,21,1.75307,0.00176754
16,21,1.77977,0.00170131
17,21,1.80677,0.00163398
18,21,1.83407,0.00156635
19,21,1.86165,0.00149909
20,21,1.88952,0.00143275
21,21,1.91766,0.00136775
22,21,1.94608,0.00130442
23,21,1.97475,0.00124302
24,21,2.00369,0.0011837
25,21,2.03286,0.00112657
26,21,2.06228,0.0010717
27,21,2.09192,0.00101908
28,21,2.12179,0.000968711
29,21,2.15185,0.000920536
30,21,2.18212,0.000874495
31,21,2.21257,0.000830512
32,21,2.2432,0.000788498
33,21,2.27398,0.000748363
34,21,2.30492,0.000710008
35,21,2.33599,0.000673338
36,21,2.36718,0.000638255
37,21,2.39847,0.000604663
38,21,2.42986,0.000572469
39,21,2.46133,0.000541583
40,21,2.49285,0.000511918
41,21,2.52442,0.000483391
42,21,2.55603,0.000455923
43,21,2.58764,0.000429437
44,21,2.61925,0.000403863
45,21,2.65083,0.000379132
46,21,2.68237,0.00035518
47,21,2.71386,0.000331945
48,21,2.74526,0.00030937
49,21,2.77657,0.0002874
50,21,2.80776,0.000265982
51,21,2.83882,0.000245068
52,21,2.86971,0.00022461
53,21,2.90043,0.000204563
54,21,2.93096,0.000184885
55,21,2.96126,0.000165534
56,21,2.99133,0.000146471
57,21,3.02113,0.000127659
58,21,3.05066,0.000109059
59,21,3.07988,9.06371e-05
60,21,3.10878,7.23581e-05
61,21,3.13733,5.41881e-05
62,21,3.16551,3.60936e-05
63,21,3.19331,1.80418e-05
1,22,1.43447,0.00204198
2,22,1.45703,0.0020461
3,22,1.47993,0.00205188
4,22,1.50317,0.00205748
5,22,1.52676,0.00206053
6,22,1.55068,0.00205853
7,22,1.57493,0.00204945
8,22,1.59951,0.00203238
9,22,1.62442,0.00200714
10,22,1.64965,0.00197409
11,22,1.6752,0.00193401
12,22,1.70108,0.0018879
13,22,1.72728,0.00183679
14,22,1.75378,0.0017817
15,22,1.78061,0.00172361
16,22,1.80773,0.00166339
17,22,1.83517,0.00160186
18,22,1.8629,0.00153971
19,22,1.89092,0.00147754
20,22,1.91923,0.00141588
21,22,1.94783,0.00135513
22,22,1.97669,0.00129562
23,22,2.00583,0.0012376
24,22,2.03522,0.00118127
25,22,2.06486,0.00112675
26,22,2.09474,0.00107413
27,22,2.12485,0.00102345
28,22,2.15519,0.000974709
29,22,2.18573,0.000927903
30,22,2.21648,0.000882992
31,22,2.24741,0.000839926
32,22,2.27852,0.000798641
33,22,2.30979,0.000759066
34,22,2.34121,0.000721125
35,22,2.37277,0.000684739
36,22,2.40445,0.000649827
37,22,2.43624,0.000616306
38,22,2.46813,0.000584096
39,22,2.50009,0.000553118
40,22,2.53211,0.000523296
41,22,2.56418,0.000494554
42,22,2.59628,0.00046682
43,22,2.62839,0.000440026
44,22,2.6605,0.000414106
45,22,2.69258,0.000388997
46,22,2.72462,0.000364638
47,22,2.7566,0.000340973
48,22,2.7885,0.000317946
49,22,2.8203,0.000295505
50,22,2.85198,0.000273602
51,22,2.88352,0.000252188
52,22,2.91491,0.000231219
53,22,2.94611,0.000210651
54,22,2.97712,0.000190443
55,22,3.0079,0.000170555
56,22,3.03844,0.000150949
57,22,3.06871,0.000131588
58,22,3.0987,0.000112435
59,22,3.12838,9.34562e-05
60,22,3.15773,7.46172e-05
61,22,3.18673,5.58847e-05
62,22,3.21536,3.72259e-05
63,22,3.24359,1.86084e-05
1,23,1.45699,0.00199621
2,23,1.47989,0.00199782
3,23,1.50315,0.00199973
4,23,1.52676,0.00200066
5,23,1.55071,0.00199904
6,23,1.575,0.00199322
7,23,1.59963,0.00198187
8,23,1.6246,0.00196421
9,23,1.6499,0.00193998
10,23,1.67553,0.00190935
11,23,1.70149,0.00187278
12,23,1.72778,0.00183095
13,23,1.75439,0.00178466
14,23,1.78133,0.00173468
15,23,1.80858,0.00168183
16,23,1.83614,0.00162683
17,23,1.86401,0.00157038
18,23,1.89218,0.0015131
19,23,1.92066,0.00145552
20,23,1.94942,0.00139813
21,23,1.97847,0.00134129
22,23,2.00779,0.00128534
23,23,2.03739,0.00123054
24,23,2.06725,0.00117706
25,23,2.09736,0.00112507
26,23,2.12771,0.00107466
27,23,2.1583,0.00102589
28,23,2.18912,0.000978805
29,23,2.22015,0.000933403
30,23,2.25138,0.000889674
31,23,2.2828,0.000847587
32,23,2.3144,0.000807101
33,23,2.34616,0.000768164
34,23,2.37808,0.000730716
35,23,2.41014,0.000694695
36,23,2.44232,0.000660033
37,23,2.47461,0.000626663
38,23,2.507,0.000594516
39,23,2.53946,0.000563523
40,23,2.57199,0.000533616
41,23,2.60456,0.00050473
42,23,2.63717,0.0004768
43,23,2.66979,0.000449762
44,23,2.7024,0.000423558
45,23,2.73498,0.000398129
46,23,2.76753,0.00037342
47,23,2.80001,0.000349377
48,23,2.83241,0.000325948
49,23,2.86471,0.000303086
50,23,2.89689,0.000280742
51,23,2.92893,0.000258872
52,23,2.96081,0.000237433
53,23,2.99251,0.000216384
54,23,3.024,0.000195684
55,23,3.05527,0.000175295
56,23,3.08629,0.00015518
57,23,3.11704,0.000135303
58,23,3.1475,0.00011563
59,23,3.17765,9.61256e-05
60,23,3.20746,7.67575e-05
61,23,3.23692,5.74927e-05
62,23,3.266,3.82994e-05
63,23,3.29467,1.91456e-05
1,24,1.47985,0.00194934
2,24,1.50312,0.00194925
3,24,1.52674,0.00194858
4,24,1.55071,0.00194643
5,24,1.57504,0.00194175
6,24,1.59971,0.00193345
7,24,1.62473,0.00192061
8,24,1.65009,0.00190263
9,24,1.67579,0.00187926
10,24,1.70183,0.00185056
11,24,1.7282,0.00181682
12,24,1.75491,0.00177851
13,24,1.78195,0.00173622
14,24,1.80931,0.00169057
15,24,1.83699,0.00164221
16,24,1.86499,0.00159174
17,24,1.89331,0.00153976
18,24,1.92193,0.00148681
19,24,1.95086,0.00143336
20,24,1.98008,0.00137984
21,24,2.00959,0.0013266
22,24,2.03938,0.00127396
23,24,2.06944,0.00122216
24,24,2.09978,0.0011714
25,24,2.13036,0.00112183
26,24,2.1612,0.00107357
27,24,2.19228,0.00102669
28,24,2.22358,0.000981245
29,24,2.2551,0.000937261
30,24,2.28682,0.000894743
31,24,2.31874,0.000853678
32,24,2.35084,0.000814042
33,24,2.38311,0.0007758
34,24,2.41553,0.000738908
35,24,2.44809,0.000703318
36,24,2.48078,0.000668975
37,24,2.51358,0.000635825
38,24,2.54648,0.000603808
39,24,2.57945,0.000572866
40,24,2.61249,0.000542941
41,24,2.64558,0.000513974
42,24,2.6787,0.000485908
43,24,2.71183,0.000458686
44,24,2.74495,0.000432255
45,24,2.77805,0.000406561
46,24,2.81111,0.000381553
47,24,2.84411,0.000357181
48,24,2.87702,0.000333398
49,24,2.90983,0.000310159
50,24,2.94252,0.000287418
51,24,2.97506,0.000265133
52,24,3.00744,0.000243264
53,24,3.03964,0.000221771
54,24,3.07162,0.000200615
55,24,3.10338,0.00017976
56,24,3.13489,0.00015917
57,24,3.16613,0.000138811
58,24,3.19707,0.000118648
59,24,3.22769,9.86492e-05
60,24,3.25797,7.87818e-05
61,24,3.28789,5.90143e-05
62,24,3.31743,3.93154e-05
63,24,3.34656,1.96542e-05
1,25,1.50308,0.00190251
2,25,1.52671,0.00190128
3,25,1.5507,0.0018989
4,25,1.57505,0.00189475
5,25,1.59976,0.00188811
6,25,1.62482,0.00187824
7,25,1.65023,0.0018645
8,25,1.67599,0.00184646
9,25,1.70209,0.0018239
10,25,1.72855,0.00179683
11,25,1.75534,0.00176544
12,25,1.78247,0.00173008
13,25,1.80993,0.00169117
14,25,1.83773,0.00164921
15,25,1.86586,0.00160471
16,25,1.8943,0.00155819
17,25,1.92307,0.00151015
18,25,1.95215,0.00146104
19,25,1.98153,0.00141129
20,25,2.01122,0.00136129
21,25,2.0412,0.00131135
22,25,2.07146,0.00126177
23,25,2.102,0.00121278
24,25,2.13282,0.00116458
25,25,2.16389,0.00111732
26,25,2.19522,0.00107112
27,25,2.22678,0.00102608
28,25,2.25858,0.000982254
29,25,2.2906,0.000939684
30,25,2.32282,0.000898388
31,25,2.35525,0.000858369
32,25,2.38785,0.000819619
33,25,2.42063,0.000782115
34,25,2.45356,0.000745828
35,25,2.48664,0.000710722
36,25,2.51984,0.000676754
37,25,2.55316,0.00064388
38,25,2.58658,0.000612051
39,25,2.62007,0.000581219
40,25,2.65363,0.000551332
41,25,2.68724,0.000522341
42,25,2.72088,0.000494194
43,25,2.75454,0.000466841
44,25,2.78818,0.000440234
45,25,2.8218,0.000414325
46,25,2.85538,0.000389066
47,25,2.8889,0.000364412
48,25,2.92233,0.00034032
49,25,2.95565,0.000316745
50,25,2.98886,0.000293648
51,25,3.02191,0.000270988
52,25,3.0548,0.000248725
53,25,3.0875,0.000226824
54,25,3.12,0.000205247
55,25,3.15225,0.00018396
56,25,3.18426,0.000162927
57,25,3.21599,0.000142116
58,25,3.24741,0.000121495
59,25,3.27852,0.000101031
60,25,3.30928,8.06937e-05
61,25,3.33967,6.0452e-05
62,25,3.36967,4.02757e-05
63,25,3.39926,2.0135e-05
1,26,1.52667,0.00185645
2,26,1.55068,0.0018545
3,26,1.57504,0.00185101
4,26,1.59978,0.00184559
5,26,1.62487,0.00183772
6,26,1.65032,0.00182691
7,26,1.67613,0.00181272
8,26,1.7023,0.00179483
9,26,1.72882,0.00177307
10,26,1.75569,0.00174744
11,26,1.78291,0.00171807
12,26,1.81047,0.00168521
13,26,1.83837,0.00164919
14,26,1.86661,0.00161041
15,26,1.89518,0.00156926
16,26,1.92408,0.0015262
17,26,1.9533,0.00148162
18,26,1.98284,0.00143594
19,26,2.01269,0.00138952
20,26,2.04285,0.00134269
21,26,2.0733,0.00129577
22,26,2.10405,0.00124901
23,26,2.13508,0.00120264
24,26,2.16638,0.00115684
25,26,2.19794,0.00111177
26,26,2.22977,0.00106755
27,26,2.26183,0.00102429
28,26,2.29413,0.00098204
29,26,2.32666,0.000940862
30,26,2.35939,0.000900785
31,26,2.39232,0.000861824
32,26,2.42545,0.000823979
33,26,2.45874,0.000787243
34,26,2.49219,0.000751597
35,26,2.52579,0.000717015
36,26,2.55952,0.000683467
37,26,2.59336,0.000650916
38,26,2.62731,0.000619325
39,26,2.66133,0.000588651
40,26,2.69542,0.000558853
41,26,2.72956,0.000529887
42,26,2.76373,0.000501708
43,26,2.79791,0.000474272
44,26,2.83209,0.000447536
45,26,2.86624,0.000421457
46,26,2.90035,0.000395991
47,26,2.93439,0.000371098
48,26,2.96835,0.000346737
49,26,3.0022,0.000322867
50,26,3.03592,0.000299451
51,26,3.0695,0.000276452
52,26,3.10291,0.000253832
53,26,3.13613,0.000231557
54,26,3.16913,0.000209592
55,26,3.2019,0.000187904
56,26,3.2344,0.000166459
57,26,3.26663,0.000145227
58,26,3.29855,0.000124177
59,26,3.33015,0.000103276
60,26,3.36139,8.24969e-05
61,26,3.39226,6.18086e-05
62,26,3.42274,4.11822e-05
63,26,3.45279,2.0589e-05
1,27,1.55064,0.00181167
2,27,1.57502,0.00180925
3,27,1.59977,0.00180508
4,27,1.62489,0.00179887
5,27,1.65038,0.00179029
6,27,1.67623,0.00177899
7,27,1.70245,0.00176466
8,27,1.72903,0.00174709
9,27,1.75597,0.00172614
10,27,1.78326,0.00170182
11,27,1.81091,0.00167422
12,27,1.83891,0.00164353
13,27,1.86725,0.00161001
14,27,1.89594,0.00157398
15,27,1.92497,0.00153577
16,27,1.95432,0.00149574
17,27,1.98401,0.00145423
18,27,2.01402,0.0014116
19,27,2.04435,0.00136817
20,27,2.07498,0.00132423
21,27,2.10592,0.00128006
22,27,2.13715,0.0012359
23,27,2.16867,0.00119195
24,27,2.20047,0.0011484
25,27,2.23253,0.0011054
26,27,2.26486,0.00106307
27,27,2.29743,0.0010215
28,27,2.33024,0.000980787
29,27,2.36328,0.000940971
30,27,2.39653,0.000902098
31,27,2.42999,0.000864191
32,27,2.46363,0.000827262
33,27,2.49745,0.000791312
34,27,2.53143,0.000756331
35,27,2.56556,0.000722305
36,27,2.59982,0.00068921
37,27,2.6342,0.000657022
38,27,2.66868,0.000625708
39,27,2.70324,0.000595235
40,27,2.73787,0.000565568
41,27,2.77254,0.000536669
42,27,2.80725,0.000508501
43,27,2.84197,0.000481025
44,27,2.87669,0.000454202
45,27,2.91138,0.000427994
46,27,2.94602,0.000402362
47,27,2.9806,0.000377268
48,27,3.01509,0.000352676
49,27,3.04948,0.000328548
50,27,3.08373,0.000304849
51,27,3.11784,0.000281545
52,27,3.15177,0.000258601
53,27,3.18551,0.000235985
54,27,3.21904,0.000213663
55,27,3.25232,0.000191604
56,27,3.28534,0.000169777
57,27,3.31807,0.000148152
58,27,3.3505,0.0001267
59,27,3.38259,0.000105391
60,27,3.41433,8.41959e-05
61,27,3.44568,6.30873e-05
62,27,3.47664,4.2037e-05
63,27,3.50716,2.10171e-05
1,28,1.57499,0.00176848
2,28,1.59975,0.00176578
3,28,1.62489,0.0017612
4,28,1.65041,0.00175455
5,28,1.6763,0.0017456
6,28,1.70256,0.00173411
7,28,1.72919,0.00171988
8,28,1.75619,0.00170273
9,28,1.78355,0.0016826
10,28,1.81128,0.00165949
11,28,1.83936,0.00163347
12,28,1.8678,0.0016047
13,28,1.8966,0.00157338
14,28,1.92574,0.00153976
15,28,1.95522,0.00150413
16,28,1.98505,0.00146677
17,28,2.01521,0.001428
18,28,2.04569,0.0013881
19,28,2.0765,0.00134735
20,28,2.10762,0.00130603
21,28,2.13905,0.00126437
22,28,2.17077,0.0012226
23,28,2.20279,0.0011809
24,28,2.23509,0.00113945
25,28,2.26767,0.00109839
26,28,2.3005,0.00105784
27,28,2.33359,0.00101791
28,28,2.36692,0.000978663
29,28,2.40048,0.00094017
30,28,2.43426,0.000902476
31,28,2.46824,0.000865612
32,28,2.50242,0.000829597
33,28,2.53677,0.00079444
34,28,2.57129,0.000760141
35,28,2.60596,0.000726691
36,28,2.64076,0.000694078
37,28,2.67568,0.000662281
38,28,2.7107,0.000631277
39,28,2.7458,0.00060104
40,28,2.78098,0.00057154
41,28,2.8162,0.000542746
42,28,2.85146,0.000514627
43,28,2.88673,0.000487148
44,28,2.92199,0.000460275
45,28,2.95723,0.000433975
46,28,2.99242,0.000408212
47,28,3.02754,0.000382953
48,28,3.06257,0.000358164
49,28,3.0975,0.000333812
50,28,3.1323,0.000309864
51,28,3.16694,0.000286287
52,28,3.20141,0.00026305
53,28,3.23568,0.000240121
54,28,3.26973,0.000217472
55,28,3.30354,0.000195071
56,28,3.33708,0.00017289
57,28,3.37033,0.0001509
58,28,3.40326,0.000129072
59,28,3.43586,0.00010738
60,28,3.4681,8.57954e-05
61,28,3.49995,6.42918e-05
62,28,3.53139,4.28424e-05
63,28,3.56239,2.14206e-05
1,29,1.59972,0.00172705
2,29,1.62488,0.0017242
3,29,1.65041,0.00171941
4,29,1.67633,0.00171256
5,29,1.70263,0.00170348
6,29,1.7293,0.00169201
7,29,1.75635,0.00167801
8,29,1.78377,0.00166139
9,29,1.81157,0.00164208
10,29,1.83973,0.0016201
11,29,1.86826,0.00159551
12,29,1.89715,0.00156844
13,29,1.9264,0.00153906
14,29,1.95601,0.00150758
15,29,1.98596,0.00147423
16,29,2.01626,0.00143926
17,29,2.04689,0.00140292
18,29,2.07786,0.00136546
19,29,2.10916,0.00132714
20,29,2.14077,0.00128819
21,29,2.1727,0.00124883
22,29,2.20493,0.00120925
23,29,2.23745,0.00116963
24,29,2.27026,0.00113014
25,29,2.30335,0.0010909
26,29,2.33671,0.00105204
27,29,2.37032,0.00101365
28,29,2.40418,0.000975818
29,29,2.43827,0.000938603
30,29,2.47258,0.000902057
31,29,2.5071,0.000866216
32,29,2.54181,0.000831106
33,29,2.57671,0.000796743
34,29,2.61177,0.000763132
35,29,2.64699,0.000730273
36,29,2.68234,0.000698158
37,29,2.71781,0.000666775
38,29,2.75338,0.000636107
39,29,2.78904,0.000606134
40,29,2.82477,0.000576832
41,29,2.86055,0.000548175
42,29,2.89636,0.000520136
43,29,2.93218,0.000492686
44,29,2.968,0.000465797
45,29,3.00379,0.000439437
46,29,3.03954,0.000413577
47,29,3.07521,0.000388185
48,29,3.1108,0.000363231
49,29,3.14628,0.000338685
50,29,3.18162,0.000314517
51,29,3.21681,0.000290697
52,29,3.25182,0.000267196
53,29,3.28663,0.000243984
54,29,3.32122,0.000221035
55,29,3.35556,0.000198319
56,29,3.38963,0.000175809
57,29,3.4234,0.000153479
58,29,3.45686,0.000131301
59,29,3.48997,0.00010925
60,29,3.52271,8.73005e-05
61,29,3.55506,6.54258e-05
62,29,3.587,4.36009e-05
63,29,3.61849,2.18007e-05
1,30,1.62485,0.00168749
2,30,1.6504,0.00168458
3,30,1.67634,0.00167971
4,30,1.70266,0.0016728
5,30,1.72937,0.00166375
6,30,1.75647,0.00165245
7,30,1.78394,0.0016388
8,30,1.8118,0.00162274
9,30,1.84003,0.00160425
10,30,1.86864,0.00158333
11,30,1.89762,0.00156005
12,30,1.92697,0.00153452
13,30,1.95668,0.00150688
14,30,1.98676,0.0014773
15,30,2.01718,0.00144598
16,30,2.04796,0.00141314
17,30,2.07908,0.00137898
18,30,2.11054,0.00134373
19,30,2.14233,0.0013076
20,30,2.17444,0.0012708
21,30,2.20688,0.00123354
22,30,2.23962,0.00119597
23,30,2.27266,0.00115828
24,30,2.30599,0.0011206
25,30,2.3396,0.00108307
26,30,2.37348,0.0010458
27,30,2.40763,0.00100887
28,30,2.44202,0.000972387
29,30,2.47665,0.000936399
30,30,2.5115,0.000900964
31,30,2.54657,0.000866121
32,30,2.58183,0.000831901
33,30,2.61728,0.000798324
34,30,2.65289,0.000765402
35,30,2.68866,0.00073314
36,30,2.72457,0.000701537
37,30,2.7606,0.000670584
38,30,2.79673,0.000640272
39,30,2.83296,0.000610585
40,30,2.86925,0.000581504
41,30,2.90559,0.00055301
42,30,2.94197,0.000525079
43,30,2.97836,0.000497688
44,30,3.01474,0.00047081
45,30,3.05109,0.00044442
46,30,3.0874,0.000418491
47,30,3.12364,0.000392995
48,30,3.15979,0.000367905
49,30,3.19582,0.000343194
50,30,3.23173,0.000318834
51,30,3.26747,0.000294798
52,30,3.30303,0.000271059
53,30,3.33839,0.00024759
54,30,3.37352,0.000224366
55,30,3.4084,0.000201359
56,30,3.44301,0.000178546
57,30,3.47731,0.000155899
58,30,3.51129,0.000133396
59,30,3.54493,0.000111009
60,30,3.57819,8.87167e-05
61,30,3.61105,6.64933e-05
62,30,3.64348,4.43153e-05
63,30,3.67548,2.21588e-05
1,31,1.65037,0.00164984
2,31,1.67632,0.00164692
3,31,1.70267,0.00164206
4,31,1.72941,0.00163522
5,31,1.75654,0.0016263
6,31,1.78406,0.00161526
7,31,1.81197,0.00160202
8,31,1.84027,0.00158656
9,31,1.86895,0.00156886
10,31,1.89801,0.00154894
11,31,1.92745,0.00152687
12,31,1.95726,0.00150274
13,31,1.98744,0.00147666
14,31,2.01799,0.00144879
15,31,2.0489,0.0014193
16,31,2.08016,0.00138835
17,31,2.11178,0.00135616
18,31,2.14373,0.00132289
19,31,2.17603,0.00128875
20,31,2.20865,0.00125392
21,31,2.24159,0.00121857
22,31,2.27485,0.00118286
23,31,2.30842,0.00114694
24,31,2.34227,0.00111095
25,31,2.37642,0.00107501
26,31,2.41084,0.00103923
27,31,2.44552,0.0010037
28,31,2.48045,0.00096849
29,31,2.51563,0.000933677
30,31,2.55103,0.000899311
31,31,2.58665,0.000865436
32,31,2.62247,0.000832085
33,31,2.65848,0.000799282
34,31,2.69466,0.000767045
35,31,2.73099,0.000735381
36,31,2.76747,0.000704294
37,31,2.80406,0.000673783
38,31,2.84077,0.000643841
39,31,2.87756,0.000614457
40,31,2.91443,0.000585618
41,31,2.95134,0.000557308
42,31,2.98829,0.000529509
43,31,3.02526,0.000502199
44,31,3.06221,0.000475358
45,31,3.09914,0.000448963
46,31,3.13602,0.000422991
47,31,3.17283,0.000397416
48,31,3.20955,0.000372216
49,31,3.24615,0.000347365
50,31,3.28262,0.000322838
51,31,3.31892,0.00029861
52,31,3.35505,0.000274658
53,31,3.39096,0.000250956
54,31,3.42665,0.000227481
55,31,3.46208,0.000204207
56,31,3.49723,0.000181112
57,31,3.53207,0.000158172
58,31,3.56659,0.000135364
59,31,3.60075,0.000112664
60,31,3.63453,9.00497e-05
61,31,3.66791,6.74987e-05
62,31,3.70086,4.49883e-05
63,31,3.73336,2.24962e-05
1,32,1.6763,0.00161411
2,32,1.70266,0.00161122
3,32,1.72942,0.00160643
4,32,1.75658,0.00159971
5,32,1.78414,0.00159101
6,32,1.8121,0.00158028
7,32,1.84045,0.0015675
8,32,1.86919,0.00155264
9,32,1.89832,0.00153571
10,32,1.92784,0.00151674
11,32,1.95775,0.00149578
12,32,1.98803,0.00147292
13,32,2.01869,0.00144826
14,32,2.04972,0.00142193
15,32,2.08112,0.00139408
16,32,2.11288,0.00136486
17,32,2.14499,0.00133443
18,32,2.17745,0.00130297
19,32,2.21026,0.00127063
20,32,2.24339,0.00123759
21,32,2.27686,0.00120399
22,32,2.31064,0.00116998
23,32,2.34474,0.00113571
24,32,2.37913,0.00110129
25,32,2.41381,0.00106683
26,32,2.44878,0.00103245
27,32,2.48401,0.000998225
28,32,2.5195,0.000964233
29,32,2.55523,0.00093054
30,32,2.59119,0.000897201
31,32,2.62737,0.00086426
32,32,2.66376,0.000831754
33,32,2.70033,0.000799709
34,32,2.73708,0.000768145
35,32,2.77399,0.000737075
36,32,2.81104,0.000706507
37,32,2.84821,0.000676443
38,32,2.8855,0.00064688
39,32,2.92287,0.000617812
40,32,2.96032,0.00058923
41,32,2.99782,0.000561122
42,32,3.03535,0.000533473
43,32,3.07289,0.000506265
44,32,3.11043,0.000479482
45,32,3.14794,0.000453104
46,32,3.1854,0.000427111
47,32,3.22279,0.000401481
48,32,3.26009,0.000376193
49,32,3.29727,0.000351224
50,32,3.33431,0.000326553
51,32,3.37119,0.000302157
52,32,3.40788,0.000278014
53,32,3.44436,0.000254101
54,32,3.48061,0.000230396
55,32,3.5166,0.000206877
56,32,3.5523,0.000183521
57,32,3.58769,0.000160308
58,32,3.62275,0.000137215
59,32,3.65745,0.000114221
60,32,3.69177,9.13054e-05
61,32,3.72567,6.84463e-05
62,32,3.75914,4.56229e-05
63,32,3.79215,2.28144e-05
1,33,1.70264,0.00158026
2,33,1.72941,0.00157743
3,33,1.7566,0.00157276
4,33,1.78419,0.0015662
5,33,1.81218,0.00155775
6,33,1.84058,0.00154738
7,33,1.86937,0.00153507
8,33,1.89857,0.00152081
9,33,1.92816,0.00150463
10,33,1.95815,0.00148655
11,33,1.98852,0.00146662
12,33,2.01929,0.00144493
13,33,2.05043,0.00142156
14,33,2.08195,0.00139663
15,33,2.11384,0.00137026
16,33,2.14611,0.0013426
17,33,2.17873,0.00131378
18,33,2.2117,0.00128395
19,33,2.24503,0.00125325
20,33,2.27869,0.00122184
21,33,2.31268,0.00118985
22,33,2.347,0.00115741
23,33,2.38163,0.00112465
24,33,2.41657,0.00109169
25,33,2.4518,0.00105862
26,33,2.48732,0.00102555
27,33,2.5231,0.000992553
28,33,2.55915,0.00095971
29,33,2.59545,0.000927083
30,33,2.63198,0.000894726
31,33,2.66873,0.000862684
32,33,2.70569,0.000830995
33,33,2.74284,0.000799687
34,33,2.78017,0.000768784
35,33,2.81766,0.0007383
36,33,2.8553,0.000708248
37,33,2.89306,0.000678632
38,33,2.93093,0.000649454
39,33,2.96889,0.000620711
40,33,3.00693,0.000592397
41,33,3.04502,0.000564504
42,33,3.08314,0.00053702
43,33,3.12128,0.000509931
44,33,3.15941,0.000483224
45,33,3.19751,0.000456882
46,33,3.23556,0.000430887
47,33,3.27354,0.000405221
48,33,3.31142,0.000379866
49,33,3.34919,0.0003548
50,33,3.38682,0.000330006
51,33,3.42427,0.000305461
52,33,3.46154,0.000281147
53,33,3.4986,0.000257043
54,33,3.53542,0.000233128
55,33,3.57197,0.000209382
56,33,3.60824,0.000185785
57,33,3.64419,0.000162317
58,33,3.6798,0.000138959
59,33,3.71505,0.00011569
60,33,3.74991,9.249e-05
61,33,3.78434,6.93407e-05
62,33,3.81834,4.62221e-05
63,33,3.85186,2.3115e-05
1,34,1.72939,0.00154827
2,34,1.75659,0.00154552
3,34,1.7842,0.00154097
4,34,1.81223,0.00153462
5,34,1.84066,0.00152645
6,34,1.86951,0.00151644
7,34,1.89876,0.00150461
8,34,1.92841,0.00149094
9,34,1.95847,0.00147547
10,34,1.98893,0.00145822
11,34,2.01979,0.00143925
12,34,2.05104,0.00141863
13,34,2.08267,0.00139645
14,34,2.11469,0.00137279
15,34,2.14709,0.00134778
16,34,2.17986,0.00132153
17,34,2.213,0.00129416
18,34,2.24649,0.00126582
19,34,2.28034,0.00123662
20,34,2.31454,0.0012067
21,34,2.34907,0.00117618
22,34,2.38393,0.00114519
23,34,2.41911,0.00111383
24,34,2.4546,0.00108222
25,34,2.49039,0.00105045
26,34,2.52646,0.0010186
27,34,2.56282,0.000986764
28,34,2.59943,0.000955007
29,34,2.6363,0.000923392
30,34,2.67341,0.000891971
31,34,2.71074,0.000860791
32,34,2.74829,0.000829888
33,34,2.78602,0.000799295
34,34,2.82394,0.000769035
35,34,2.86202,0.000739127
36,34,2.90025,0.000709584
37,34,2.93861,0.000680415
38,34,2.97708,0.000651623
39,34,3.01564,0.00062321
40,34,3.05427,0.000595172
41,34,3.09296,0.000567503
42,34,3.13169,0.000540196
43,34,3.17043,0.000513241
44,34,3.20916,0.000486625
45,34,3.24786,0.000460334
46,34,3.28651,0.000434354
47,34,3.32509,0.00040867
48,34,3.36357,0.000383264
49,34,3.40193,0.00035812
50,34,3.44015,0.000333219
51,34,3.4782,0.000308544
52,34,3.51605,0.000284077
53,34,3.55369,0.000259799
54,34,3.59109,0.000235692
55,34,3.62822,0.000211738
56,34,3.66506,0.000187917
57,34,3.70158,0.000164212
58,34,3.73775,0.000140605
59,34,3.77355,0.000117076
60,34,3.80896,9.36098e-05
61,34,3.84394,7.01866e-05
62,34,3.87847,4.67891e-05
63,34,3.91252,2.33995e-05
1,35,1.75657,0.00151809
2,35,1.7842,0.00151542
3,35,1.81225,0.00151101
4,35,1.84071,0.00150487
5,35,1.86959,0.00149699
6,35,1.89889,0.00148736
7,35,1.92861,0.00147599
8,35,1.95873,0.0014629
9,35,1.98926,0.0014481
10,35,2.0202,0.00143164
11,35,2.05155,0.00141357
12,35,2.08329,0.00139394
13,35,2.11542,0.00137283
14,35,2.14795,0.00135034
15,35,2.18086,0.00132656
16,35,2.21415,0.0013016
17,35,2.24781,0.00127556
18,35,2.28183,0.00124857
19,35,2.31622,0.00122075
20,35,2.35095,0.00119219
21,35,2.38603,0.00116303
22,35,2.42144,0.00113337
23,35,2.45718,0.00110331
24,35,2.49323,0.00107295
25,35,2.52958,0.00104238
26,35,2.56623,0.00101168
27,35,2.60315,0.000980931
28,35,2.64035,0.000950198
29,35,2.6778,0.00091954
30,35,2.71549,0.000889011
31,35,2.75342,0.000858653
32,35,2.79155,0.000828507
33,35,2.82988,0.000798604
34,35,2.8684,0.000768968
35,35,2.90708,0.000739622
36,35,2.94591,0.000710579
37,35,2.98488,0.000681851
38,35,3.02395,0.000653445
39,35,3.06312,0.000625363
40,35,3.10237,0.000597605
41,35,3.14167,0.000570169
42,35,3.181,0.000543048
43,35,3.22035,0.000516236
44,35,3.25969,0.000489722
45,35,3.299,0.000463496
46,35,3.33826,0.000437546
47,35,3.37745,0.000411858
48,35,3.41653,0.000386417
49,35,3.4555,0.000361209
50,35,3.49432,0.000336219
51,35,3.53297,0.00031143
52,35,3.57142,0.000286826
53,35,3.60966,0.00026239
54,35,3.64764,0.000238107
55,35,3.68536,0.000213959
56,35,3.72278,0.00018993
57,35,3.75987,0.000166003
58,35,3.79661,0.000142162
59,35,3.83298,0.00011839
60,35,3.86894,9.46713e-05
61,35,3.90447,7.0989e-05
62,35,3.93955,4.73271e-05
63,35,3.97414,2.36695e-05
1,36,1.78418,0.00148965
2,36,1.81224,0.00148706
3,36,1.84073,0.00148281
4,36,1.86965,0.00147689
5,36,1.89899,0.0014693
6,36,1.92875,0.00146004
7,36,1.95893,0.00144913
8,36,1.98953,0.00143659
9,36,2.02054,0.00142243
10,36,2.05197,0.00140671
11,36,2.08381,0.00138946
12,36,2.11605,0.00137074
13,36,2.14869,0.00135063
14,36,2.18173,0.00132921
15,36,2.21516,0.00130655
16,36,2.24897,0.00128277
17,36,2.28317,0.00125795
18,36,2.31773,0.0012322
19,36,2.35266,0.00120563
20,36,2.38794,0.00117833
21,36,2.42357,0.00115042
22,36,2.45954,0.00112198
23,36,2.49584,0.00109312
24,36,2.53246,0.00106392
25,36,2.56939,0.00103447
26,36,2.60662,0.00100485
27,36,2.64413,0.000975118
28,36,2.68191,0.000945349
29,36,2.71995,0.000915597
30,36,2.75824,0.000885913
31,36,2.79676,0.000856341
32,36,2.8355,0.000826919
33,36,2.87444,0.000797679
34,36,2.91356,0.000768647
35,36,2.95285,0.000739846
36,36,2.99229,0.000711293
37,36,3.03187,0.000682999
38,36,3.07156,0.000654974
39,36,3.11135,0.000627222
40,36,3.15121,0.000599747
41,36,3.19113,0.000572547
42,36,3.23109,0.000545619
43,36,3.27106,0.000518957
44,36,3.31102,0.000492556
45,36,3.35095,0.000466405
46,36,3.39083,0.000440496
47,36,3.43063,0.000414816
48,36,3.47033,0.000389354
49,36,3.50991,0.000364096
50,36,3.54934,0.000339029
51,36,3.5886,0.00031414
52,36,3.62766,0.000289413
53,36,3.6665,0.000264834
54,36,3.70508,0.000240388
55,36,3.74339,0.000216061
56,36,3.7814,0.000191838
57,36,3.81908,0.000167703
58,36,3.8564,0.000143641
59,36,3.89334,0.000119639
60,36,3.92987,9.56811e-05
61,36,3.96596,7.17528e-05
62,36,4.00158,4.78395e-05
63,36,4.03672,2.39267e-05
1,37,1.81223,0.00146289
2,37,1.84073,0.0014604
3,37,1.86967,0.0014563
4,37,1.89904,0.00145059
5,37,1.92884,0.00144329
6,37,1.95907,0.0014344
7,37,1.98973,0.00142393
8,37,2.02081,0.00141191
9,37,2.05232,0.00139836
10,37,2.08424,0.00138332
11,37,2.11658,0.00136684
12,37,2.14933,0.00134897
13,37,2.18249,0.00132978
14,37,2.21605,0.00130933
15,37,2.25001,0.00128771
16,37,2.28435,0.001265
17,37,2.31909,0.0012413
18,37,2.35419,0.00121669
19,37,2.38967,0.00119126
20,37,2.42552,0.00116512
21,37,2.46171,0.00113836
22,37,2.49825,0.00111105
23,37,2.53512,0.0010833
24,37,2.57232,0.00105518
25,37,2.60983,0.00102678
26,37,2.64764,0.000998155
27,37,2.68574,0.000969382
28,37,2.72412,0.00094052
29,37,2.76277,0.000911623
30,37,2.80166,0.00088274
31,37,2.84079,0.000853914
32,37,2.88013,0.000825184
33,37,2.91969,0.00079658
34,37,2.95943,0.00076813
35,37,2.99934,0.000739858
36,37,3.03941,0.00071178
37,37,3.07961,0.00068391
38,37,3.11992,0.00065626
39,37,3.16034,0.000628836
40,37,3.20083,0.000601643
41,37,3.24138,0.000574681
42,37,3.28196,0.000547949
43,37,3.32256,0.000521445
44,37,3.36315,0.000495163
45,37,3.40372,0.000469096
46,37,3.44422,0.000443237
47,37,3.48465,0.000417576
48,37,3.52498,0.000392102
49,37,3.56518,0.000366806
50,37,3.60524,0.000341675
51,37,3.64511,0.000316697
52,37,3.68479,0.00029186
53,37,3.72423,0.000267149
54,37,3.76343,0.000242554
55,37,3.80234,0.00021806
56,37,3.84095,0.000193654
57,37,3.87922,0.000169322
58,37,3.91713,0.000145053
59,37,3.95465,0.000120832
60,37,3.99175,9.6646e-05
61,37,4.02841,7.24829e-05
62,37,4.0646,4.83295e-05
63,37,4.10029,2.41728e-05
1,38,1.84072,0.00143776
2,38,1.86967,0.00143536
3,38,1.89907,0.00143141
4,38,1.9289,0.00142592
5,38,1.95917,0.0014189
6,38,1.98987,0.00141036
7,38,2.02102,0.00140031
8,38,2.05259,0.00138878
9,38,2.08459,0.00137581
10,38,2.11702,0.00136141
11,38,2.14987,0.00134564
12,38,2.18314,0.00132855
13,38,2.21682,0.0013102
14,38,2.25091,0.00129066
15,38,2.2854,0.00126999
16,38,2.32029,0.00124827
17,38,2.35557,0.00122558
18,38,2.39123,0.00120202
19,38,2.42727,0.00117765
20,38,2.46368,0.00115257
21,38,2.50045,0.00112686
22,38,2.53756,0.00110061
23,38,2.57502,0.00107389
24,38,2.6128,0.00104677
25,38,2.6509,0.00101934
26,38,2.68931,0.000991649
27,38,2.72802,0.000963772
28,38,2.767,0.000935761
29,38,2.80625,0.000907671
30,38,2.84576,0.000879546
31,38,2.88551,0.000851429
32,38,2.92548,0.000823358
33,38,2.96565,0.000795363
34,38,3.00602,0.000767472
35,38,3.04656,0.000739709
36,38,3.08726,0.000712092
37,38,3.12809,0.000684636
38,38,3.16905,0.000657353
39,38,3.2101,0.000630252
40,38,3.25123,0.000603337
41,38,3.29242,0.000576613
42,38,3.33364,0.00055008
43,38,3.37488,0.000523736
44,38,3.41611,0.000497578
45,38,3.45731,0.000471602
46,38,3.49846,0.0004458
47,38,3.53952,0.000420166
48,38,3.58049,0.000394691
49,38,3.62132,0.000369366
50,38,3.66201,0.00034418
51,38,3.70251,0.000319124
52,38,3.74281,0.000294186
53,38,3.78288,0.000269356
54,38,3.82269,0.000244621
55,38,3.86222,0.00021997
56,38,3.90143,0.000195391
57,38,3.94031,0.000170874
58,38,3.97881,0.000146406
59,38,4.01692,0.000121976
60,38,4.05461,9.75728e-05
61,38,4.09185,7.31847e-05
62,38,4.12861,4.88006e-05
63,38,4.16486,2.44094e-05
1,39,1.86966,0.00141421
2,39,1.89907,0.00141189
3,39,1.92893,0.00140808
4,39,1.95923,0.0014028
5,39,1.98998,0.00139605
6,39,2.02117,0.00138784
7,39,2.0528,0.0013782
8,39,2.08487,0.00136714
9,39,2.11737,0.00135469
10,39,2.15031,0.0013409
11,39,2.18368,0.00132579
12,39,2.21747,0.00130943
13,39,2.25169,0.00129185
14,39,2.28632,0.00127314
15,39,2.32135,0.00125334
16,39,2.35679,0.00123253
17,39,2.39263,0.00121079
18,39,2.42886,0.00118818
19,39,2.46547,0.00116479
20,39,2.50245,0.00114069
21,39,2.53979,0.00111596
22,39,2.5775,0.00109067
23,39,2.61554,0.0010649
24,39,2.65392,0.00103872
25,39,2.69263,0.00101219
26,39,2.73164,0.000985371
27,39,2.77096,0.000958332
28,39,2.81056,0.000931122
29,39,2.85043,0.00090379
30,39,2.89056,0.000876381
31,39,2.93093,0.000848937
32,39,2.97153,0.000821492
33,39,3.01234,0.000794078
34,39,3.05334,0.000766723
35,39,3.09453,0.000739449
36,39,3.13586,0.000712277
37,39,3.17734,0.000685222
38,39,3.21894,0.000658297
39,39,3.26064,0.000631511
40,39,3.30242,0.000604872
41,39,3.34426,0.000578384
42,39,3.38613,0.000552049
43,39,3.42802,0.000525868
44,39,3.4699,0.000499838
45,39,3.51175,0.000473956
46,39,3.55354,0.000448218
47,39,3.59526,0.000422617
48,39,3.63687,0.000397147
49,39,3.67835,0.000371801
50,39,3.71967,0.000346569
51,39,3.76082,0.000321443
52,39,3.80175,0.000296414
53,39,3.84245,0.000271471
54,39,3.88289,0.000246606
55,39,3.92304,0.000221807
56,39,3.96287,0.000197065
57,39,4.00236,0.00017237
58,39,4.04147,0.000147712
59,39,4.08018,0.000123082
60,39,4.11846,9.84685e-05
61,39,4.15629,7.38633e-05
62,39,4.19362,4.92564e-05
63,39,4.23045,2.46384e-05
1,40,1.89906,0.00139215
2,40,1.92893,0.00138992
3,40,1.95926,0.00138626
4,40,1.99004,0.00138117
5,40,2.02127,0.00137468
6,40,2.05295,0.00136679
7,40,2.08508,0.00135752
8,40,2.11766,0.0013469
9,40,2.15068,0.00133496
10,40,2.18414,0.00132172
11,40,2.21803,0.00130723
12,40,2.25236,0.00129154
13,40,2.28711,0.00127468
14,40,2.32228,0.00125673
15,40,2.35787,0.00123774
16,40,2.39387,0.00121777
17,40,2.43028,0.00119689
18,40,2.46707,0.00117516
19,40,2.50426,0.00115267
20,40,2.54183,0.00112947
21,40,2.57976,0.00110564
22,40,2.61806,0.00108125
23,40,2.65671,0.00105636
24,40,2.69569,0.00103104
25,40,2.73501,0.00100536
26,40,2.77464,0.000979356
27,40,2.81457,0.000953101
28,40,2.8548,0.000926641
29,40,2.8953,0.000900024
30,40,2.93606,0.000873291
31,40,2.97707,0.000846482
32,40,3.01831,0.000819632
33,40,3.05976,0.000792772
34,40,3.10141,0.000765928
35,40,3.14325,0.000739124
36,40,3.18524,0.00071238
37,40,3.22737,0.000685713
38,40,3.26962,0.000659134
39,40,3.31198,0.000632657
40,40,3.35442,0.000606287
41,40,3.39691,0.000580032
42,40,3.43945,0.000553894
43,40,3.482,0.000527875
44,40,3.52454,0.000501974
45,40,3.56705,0.00047619
46,40,3.6095,0.000450519
47,40,3.65187,0.000424957
48,40,3.69414,0.000399498
49,40,3.73627,0.000374136
50,40,3.77825,0.000348865
51,40,3.82004,0.000323677
52,40,3.86162,0.000298563
53,40,3.90296,0.000273515
54,40,3.94403,0.000248526
55,40,3.98481,0.000223587
56,40,4.02527,0.000198688
57,40,4.06538,0.000173823
58,40,4.10511,0.000148982
59,40,4.14443,0.000124157
60,40,4.18332,9.93404e-05
61,40,4.22174,7.45241e-05
62,40,4.25966,4.97004e-05
63,40,4.29706,2.48616e-05
1,41,1.92892,0.00137156
2,41,1.95926,0.0013694
3,41,1.99007,0.00136587
4,41,2.02133,0.00136098
5,41,2.05306,0.00135473
6,41,2.08524,0.00134714
7,41,2.11788,0.00133823
8,41,2.15097,0.00132802
9,41,2.18451,0.00131654
10,41,2.21849,0.00130382
11,41,2.25292,0.00128991
12,41,2.28779,0.00127483
13,41,2.32309,0.00125865
14,41,2.35882,0.0012414
15,41,2.39497,0.00122315
16,41,2.43154,0.00120395
17,41,2.46852,0.00118386
18,41,2.50589,0.00116296
19,41,2.54367,0.00114129
20,41,2.58183,0.00111892
21,41,2.62036,0.00109593
22,41,2.65926,0.00107236
23,41,2.69852,0.00104829
24,41,2.73812,0.00102378
25,41,2.77805,0.000998874
26,41,2.81831,0.000973636
27,41,2.85888,0.000948114
28,41,2.89974,0.000922358
29,41,2.94088,0.000896411
30,41,2.98228,0.000870315
31,41,3.02394,0.000844107
32,41,3.06583,0.000817821
33,41,3.10793,0.000791487
34,41,3.15024,0.000765131
35,41,3.19273,0.000738776
36,41,3.23538,0.000712443
37,41,3.27818,0.000686148
38,41,3.3211,0.000659905
39,41,3.36413,0.000633726
40,41,3.40723,0.00060762
41,41,3.4504,0.000581593
42,41,3.4936,0.000555649
43,41,3.53682,0.00052979
44,41,3.58004,0.000504019
45,41,3.62321,0.000478334
46,41,3.66634,0.000452733
47,41,3.70938,0.000427213
48,41,3.75231,0.000401769
49,41,3.7951,0.000376397
50,41,3.83774,0.000351092
51,41,3.88019,0.000325846
52,41,3.92243,0.000300653
53,41,3.96442,0.000275506
54,41,4.00614,0.000250399
55,41,4.04756,0.000225325
56,41,4.08866,0.000200276
57,41,4.1294,0.000175245
58,41,4.16976,0.000150225
59,41,4.2097,0.000125211
60,41,4.2492,0.000100196
61,41,4.28822,7.51728e-05
62,41,4.32674,5.01364e-05
63,41,4.36473,2.50807e-05
1,42,1.95926,0.00135236
2,42,1.99008,0.00135028
3,42,2.02137,0.00134687
4,42,2.05313,0.00134216
5,42,2.08535,0.00133614
6,42,2.11804,0.00132883
7,42,2.15119,0.00132025
8,42,2.1848,0.00131043
9,42,2.21887,0.00129939
10,42,2.25339,0.00128716
11,42,2.28836,0.00127377
12,42,2.32378,0.00125927
13,42,2.35964,0.0012437
14,42,2.39593,0.0012271
15,42,2.43265,0.00120954
16,42,2.4698,0.00119105
17,42,2.50736,0.0011717
18,42,2.54533,0.00115154
19,42,2.5837,0.00113064
20,42,2.62246,0.00110904
21,42,2.6616,0.00108682
22,42,2.70111,0.00106402
23,42,2.74099,0.00104071
24,42,2.78122,0.00101694
25,42,2.82178,0.000992767
26,42,2.86267,0.000968237
27,42,2.90388,0.000943401
28,42,2.94538,0.000918303
29,42,2.98717,0.000892987
30,42,3.02923,0.00086749
31,42,3.07154,0.00084185
32,42,3.11409,0.000816097
33,42,3.15686,0.000790262
34,42,3.19984,0.000764369
35,42,3.243,0.000738443
36,42,3.28632,0.000712503
37,42,3.3298,0.000686567
38,42,3.37339,0.000660647
39,42,3.4171,0.000634757
40,42,3.46088,0.000608906
41,42,3.50473,0.0005831
42,42,3.54861,0.000557346
43,42,3.59252,0.000531647
44,42,3.63641,0.000506004
45,42,3.68027,0.000480419
46,42,3.72407,0.000454889
47,42,3.76779,0.000429412
48,42,3.81139,0.000403987
49,42,3.85486,0.000378608
50,42,3.89817,0.000353271
51,42,3.94129,0.000327972
52,42,3.98419,0.000302705
53,42,4.02685,0.000277464
54,42,4.06923,0.000252243
55,42,4.1113,0.000227037
56,42,4.15305,0.000201841
57,42,4.19443,0.000176648
58,42,4.23542,0.000151454
59,42,4.27599,0.000126253
60,42,4.31611,0.000101042
61,42,4.35575,7.58148e-05
62,42,4.39488,5.05681e-05
63,42,4.43347,2.52978e-05
1,43,1.99007,0.00133451
2,43,2.02138,0.0013325
3,43,2.05316,0.00132921
4,43,2.08542,0.00132467
5,43,2.11815,0.00131886
6,43,2.15135,0.00131182
7,43,2.18503,0.00130356
8,43,2.21917,0.00129409
9,43,2.25378,0.00128345
10,43,2.28884,0.00127167
11,43,2.32436,0.00125878
12,43,2.36034,0.00124481
13,43,2.39676,0.00122981
14,43,2.43363,0.00121382
15,43,2.47093,0.00119688
16,43,2.50866,0.00117905
17,43,2.54681,0.00116038
18,43,2.58538,0.00114091
19,43,2.62436,0.00112071
20,43,2.66373,0.00109983
21,43,2.70349,0.00107832
22,43,2.74363,0.00105623
23,43,2.78413,0.00103363
24,43,2.82499,0.00101055
25,43,2.8662,0.000987054
26,43,2.90773,0.000963185
27,43,2.94959,0.000938989
28,43,2.99175,0.000914508
29,43,3.03419,0.000889783
30,43,3.07692,0.00086485
31,43,3.1199,0.000839743
32,43,3.16312,0.000814495
33,43,3.20656,0.000789132
34,43,3.25022,0.00076368
35,43,3.29406,0.000738162
36,43,3.33806,0.000712598
37,43,3.38222,0.000687004
38,43,3.42651,0.000661395
39,43,3.4709,0.000635783
40,43,3.51537,0.000610178
41,43,3.55991,0.000584588
42,43,3.60449,0.000559019
43,43,3.64908,0.000533475
44,43,3.69367,0.000507959
45,43,3.73822,0.000482472
46,43,3.78271,0.000457013
47,43,3.82711,0.000431582
48,43,3.87141,0.000406176
49,43,3.91557,0.000380792
50,43,3.95956,0.000355428
51,43,4.00336,0.000330078
52,43,4.04693,0.000304739
53,43,4.09026,0.000279406
54,43,4.13331,0.000254075
55,43,4.17604,0.00022874
56,43,4.21845,0.000203399
57,43,4.26048,0.000178046
58,43,4.30212,0.000152679
59,43,4.34333,0.000127293
60,43,4.38408,0.000101887
61,43,4.42434,7.64562e-05
62,43,4.46409,5.09995e-05
63,43,4.50328,2.55148e-05
1,44,2.02137,0.00131796
2,44,2.05317,0.00131601
3,44,2.08546,0.00131284
4,44,2.11822,0.00130845
5,44,2.15147,0.00130285
6,44,2.1852,0.00129606
7,44,2.2194,0.00128808
8,44,2.25408,0.00127895
9,44,2.28923,0.00126869
10,44,2.32485,0.00125733
11,44,2.36093,0.00124489
12,44,2.39748,0.00123142
13,44,2.43447,0.00121694
14,44,2.47192,0.0012015
15,44,2.50981,0.00118515
16,44,2.54814,0.00116793
17,44,2.58689,0.00114988
18,44,2.62607,0.00113106
19,44,2.66566,0.00111151
20,44,2.70565,0.00109128
21,44,2.74604,0.00107043
22,44,2.78681,0.001049
23,44,2.82795,0.00102705
24,44,2.86946,0.00100462
25,44,2.91131,0.000981753
26,44,2.9535,0.0009585
27,44,2.99602,0.000934902
28,44,3.03884,0.000910998
29,44,3.08196,0.000886827
30,44,3.12535,0.000862423
31,44,3.16901,0.000837819
32,44,3.21292,0.000813046
33,44,3.25705,0.00078813
34,44,3.30139,0.000763096
35,44,3.34592,0.000737966
36,44,3.39062,0.000712759
37,44,3.43547,0.000687492
38,44,3.48046,0.00066218
39,44,3.52555,0.000636836
40,44,3.57072,0.000611468
41,44,3.61596,0.000586087
42,44,3.66124,0.000560697
43,44,3.70654,0.000535305
44,44,3.75183,0.000509912
45,44,3.79708,0.000484521
46,44,3.84227,0.000459133
47,44,3.88738,0.000433747
48,44,3.93237,0.000408361
49,44,3.97722,0.000382974
50,44,4.02191,0.000357583
51,44,4.0664,0.000332184
52,44,4.11066,0.000306775
53,44,4.15467,0.000281352
54,44,4.19839,0.000255912
55,44,4.24181,0.00023045
56,44,4.28487,0.000204965
57,44,4.32757,0.000179453
58,44,4.36986,0.000153912
59,44,4.41172,0.000128341
60,44,4.45312,0.000102738
61,44,4.49401,7.7103e-05
62,44,4.53439,5.14348e-05
63,44,4.5742,2.57337e-05
1,45,2.05317,0.00130266
2,45,2.08547,0.00130078
3,45,2.11826,0.00129772
4,45,2.15154,0.00129347
5,45,2.18532,0.00128806
6,45,2.21957,0.00128149
7,45,2.25432,0.00127379
8,45,2.28954,0.00126498
9,45,2.32525,0.00125507
10,45,2.36143,0.00124409
11,45,2.39808,0.00123207
12,45,2.4352,0.00121906
13,45,2.47278,0.00120507
14,45,2.51082,0.00119014
15,45,2.54931,0.00117433
16,45,2.58824,0.00115767
17,45,2.6276,0.0011402
18,45,2.6674,0.00112196
19,45,2.70761,0.00110302
20,45,2.74823,0.0010834
21,45,2.78926,0.00106316
22,45,2.83067,0.00104234
23,45,2.87246,0.00102099
24,45,2.91462,0.000999159
25,45,2.95714,0.000976882
26,45,2.99999,0.000954203
27,45,3.04318,0.000931162
28,45,3.08668,0.000907797
29,45,3.13048,0.000884144
30,45,3.17456,0.000860237
31,45,3.2189,0.000836106
32,45,3.2635,0.00081178
33,45,3.30832,0.000787286
34,45,3.35336,0.000762647
35,45,3.3986,0.000737884
36,45,3.444,0.000713017
37,45,3.48956,0.000688063
38,45,3.53526,0.000663035
39,45,3.58106,0.000637946
40,45,3.62695,0.000612807
41,45,3.6729,0.000587625
42,45,3.71889,0.000562409
43,45,3.7649,0.000537163
44,45,3.8109,0.00051189
45,45,3.85687,0.000486594
46,45,3.90277,0.000461274
47,45,3.94859,0.000435932
48,45,3.99429,0.000410567
49,45,4.03985,0.000385176
50,45,4.08524,0.000359759
51,45,4.13043,0.000334313
52,45,4.17539,0.000308834
53,45,4.22009,0.000283322
54,45,4.26451,0.000257772
55,45,4.3086,0.000232183
56,45,4.35235,0.000206553
57,45,4.39572,0.000180881
58,45,4.43868,0.000155166
59,45,4.4812,0.000129407
60,45,4.52324,0.000103605
61,45,4.56478,7.77616e-05
62,45,4.60579,5.18782e-05
63,45,4.64623,2.59568e-05
1,46,2.08547,0.00128858
2,46,2.11828,0.00128676
3,46,2.15158,0.00128379
4,46,2.18539,0.00127968
5,46,2.2197,0.00127445
6,46,2.25449,0.0012681
7,46,2.28978,0.00126065
8,46,2.32557,0.00125212
9,46,2.36183,0.00124254
10,46,2.39858,0.00123192
11,46,2.43581,0.00122029
12,46,2.47352,0.0012077
13,46,2.51169,0.00119416
14,46,2.55033,0.00117971
15,46,2.58942,0.00116439
16,46,2.62897,0.00114825
17,46,2.66895,0.00113131
18,46,2.70937,0.00111362
19,46,2.75022,0.00109523
20,46,2.79149,0.00107618
21,46,2.83316,0.0010565
22,46,2.87522,0.00103625
23,46,2.91768,0.00101546
24,46,2.9605,0.000994185
25,46,3.00369,0.000972453
26,46,3.04722,0.000950308
27,46,3.09108,0.000927787
28,46,3.13527,0.000904926
29,46,3.17976,0.000881758
30,46,3.22453,0.000858316
31,46,3.26958,0.000834629
32,46,3.31488,0.000810725
33,46,3.36041,0.000786628
34,46,3.40616,0.000762362
35,46,3.45211,0.000737947
36,46,3.49823,0.000713402
37,46,3.54451,0.000688744
38,46,3.59092,0.000663986
39,46,3.63744,0.000639142
40,46,3.68405,0.000614221
41,46,3.73073,0.000589232
42,46,3.77745,0.000564182
43,46,3.82419,0.000539077
44,46,3.87091,0.00051392
45,46,3.9176,0.000488715
46,46,3.96423,0.000463462
47,46,4.01077,0.000438163
48,46,4.05719,0.000412817
49,46,4.10347,0.000387422
50,46,4.14957,0.000361979
51,46,4.19547,0.000336484
52,46,4.24114,0.000310937
53,46,4.28655,0.000285334
54,46,4.33166,0.000259675
55,46,4.37645,0.000233957
56,46,4.42089,0.000208181
57,46,4.46494,0.000182346
58,46,4.50858,0.000156452
59,46,4.55176,0.000130501
60,46,4.59447,0.000104496
61,46,4.63667,7.84391e-05
62,46,4.67832,5.23344e-05
63,46,4.7194,2.61864e-05
1,47,2.11827,0.00127567
2,47,2.1516,0.0012739
3,47,2.18543,0.00127103
4,47,2.21977,0.00126705
5,47,2.25462,0.00126198
6,47,2.28996,0.00125583
7,47,2.32581,0.00124861
8,47,2.36216,0.00124035
9,47,2.399,0.00123107
10,47,2.43633,0.00122078
11,47,2.47414,0.00120952
12,47,2.51244,0.00119731
13,47,2.55122,0.00118419
14,47,2.59046,0.00117018
15,47,2.63017,0.00115533
16,47,2.67034,0.00113966
17,47,2.71096,0.00112321
18,47,2.75202,0.00110603
19,47,2.79351,0.00108815
20,47,2.83542,0.00106962
21,47,2.87775,0.00105046
22,47,2.92048,0.00103074
23,47,2.9636,0.00101047
24,47,3.0071,0.000989705
25,47,3.05097,0.000968481
26,47,3.09519,0.000946832
27,47,3.13974,0.000924795
28,47,3.18463,0.000902404
29,47,3.22981,0.000879689
30,47,3.2753,0.000856683
31,47,3.32105,0.000833412
32,47,3.36706,0.000809903
33,47,3.41332,0.00078618
34,47,3.45979,0.000762266
35,47,3.50646,0.00073818
36,47,3.55331,0.00071394
37,47,3.60031,0.000689563
38,47,3.64746,0.000665062
39,47,3.69472,0.00064045
40,47,3.74206,0.000615738
41,47,3.78948,0.000590933
42,47,3.83693,0.000566042
43,47,3.8844,0.000541073
44,47,3.93186,0.000516027
45,47,3.97929,0.000490909
46,47,4.02665,0.000465721
47,47,4.07392,0.000440462
48,47,4.12108,0.000415134
49,47,4.16808,0.000389735
50,47,4.21491,0.000364264
51,47,4.26154,0.000338721
52,47,4.30792,0.000313103
53,47,4.35405,0.000287409
54,47,4.39987,0.000261638
55,47,4.44537,0.000235789
56,47,4.49051,0.000209864
57,47,4.53525,0.000183862
58,47,4.57957,0.000157785
59,47,4.62344,0.000131636
60,47,4.66682,0.000105421
61,47,4.70969,7.91426e-05
62,47,4.752,5.28084e-05
63,47,4.79372,2.6425e-05
1,48,2.1516,0.0012639
2,48,2.18545,0.00126218
3,48,2.21982,0.00125939
4,48,2.2547,0.00125553
5,48,2.29009,0.00125061
6,48,2.326,0.00124464
7,48,2.36241,0.00123765
8,48,2.39932,0.00122964
9,48,2.43674,0.00122063
10,48,2.47466,0.00121065
11,48,2.51308,0.00119973
12,48,2.55198,0.00118788
13,48,2.59136,0.00117514
14,48,2.63123,0.00116154
15,48,2.67157,0.00114711
16,48,2.71237,0.00113188
17,48,2.75362,0.00111589
18,48,2.79533,0.00109917
19,48,2.83748,0.00108177
20,48,2.88005,0.00106371
21,48,2.92305,0.00104504
22,48,2.96645,0.0010258
23,48,3.01025,0.00100602
24,48,3.05444,0.000985728
25,48,3.09899,0.000964974
26,48,3.14391,0.000943787
27,48,3.18917,0.000922201
28,48,3.23476,0.000900247
29,48,3.28066,0.000877956
30,48,3.32686,0.000855356
31,48,3.37334,0.000832475
32,48,3.42007,0.000809337
33,48,3.46705,0.000785966
34,48,3.51426,0.000762382
35,48,3.56166,0.000738606
36,48,3.60925,0.000714655
37,48,3.657,0.000690544
38,48,3.70489,0.000666287
39,48,3.75289,0.000641896
40,48,3.80098,0.000617382
41,48,3.84914,0.000592752
42,48,3.89735,0.000568014
43,48,3.94557,0.000543174
44,48,3.99377,0.000518235
45,48,4.04195,0.000493201
46,48,4.09006,0.000468074
47,48,4.13807,0.000442854
48,48,4.18597,0.000417541
49,48,4.23372,0.000392136
50,48,4.28128,0.000366637
51,48,4.32864,0.000341043
52,48,4.37576,0.000315353
53,48,4.42261,0.000289566
54,48,4.46916,0.000263681
55,48,4.51537,0.000237699
56,48,4.56122,0.000211619
57,48,4.60667,0.000185445
58,48,4.65169,0.000159178
59,48,4.69625,0.000132825
60,48,4.74031,0.000106389
61,48,4.78385,7.98802e-05
62,48,4.82683,5.33057e-05
63,48,4.86921,2.66755e-05
1,49,2.18545,0.00125323
2,49,2.21984,0.00125156
3,49,2.25474,0.00124884
4,49,2.29017,0.00124509
5,49,2.32613,0.00124032
6,49,2.36259,0.00123452
7,49,2.39958,0.00122773
8,49,2.43708,0.00121995
9,49,2.47509,0.0012112
10,49,2.51361,0.00120151
11,49,2.55262,0.00119089
12,49,2.59214,0.00117938
13,49,2.63215,0.00116699
14,49,2.67264,0.00115376
15,49,2.71361,0.00113972
16,49,2.75505,0.0011249
17,49,2.79696,0.00110933
18,49,2.83933,0.00109304
19,49,2.88214,0.00107607
20,49,2.92538,0.00105846
21,49,2.96906,0.00104024
22,49,3.01314,0.00102144
23,49,3.05764,0.00100211
24,49,3.10252,0.000982262
25,49,3.14778,0.000961944
26,49,3.1934,0.000941186
27,49,3.23938,0.000920018
28,49,3.28568,0.000898472
29,49,3.33231,0.000876575
30,49,3.37923,0.000854355
31,49,3.42644,0.000831838
32,49,3.47392,0.000809048
33,49,3.52164,0.000786006
34,49,3.56959,0.000762734
35,49,3.61774,0.00073925
36,49,3.66608,0.00071557
37,49,3.71458,0.000691711
38,49,3.76322,0.000667685
39,49,3.81198,0.000643503
40,49,3.86083,0.000619177
41,49,3.90975,0.000594714
42,49,3.95871,0.000570122
43,49,4.00769,0.000545405
44,49,4.05666,0.000520568
45,49,4.10559,0.000495614
46,49,4.15446,0.000470544
47,49,4.20323,0.00044536
48,49,4.25189,0.000420062
49,49,4.30038,0.000394649
50,49,4.3487,0.00036912
51,49,4.39681,0.000343474
52,49,4.44467,0.000317711
53,49,4.49225,0.000291828
54,49,4.53953,0.000265826
55,49,4.58648,0.000239705
56,49,4.63305,0.000213466
57,49,4.67921,0.000187112
58,49,4.72494,0.000160648
59,49,4.7702,0.000134079
60,49,4.81496,0.000107414
61,49,4.85919,8.0661e-05
62,49,4.90284,5.38324e-05
63,49,4.94589,2.69408e-05
1,50,2.21984,0.00124363
2,50,2.25477,0.001242
3,50,2.29022,0.00123936
4,50,2.32621,0.00123571
5,50,2.36273,0.00123107
6,50,2.39977,0.00122543
7,50,2.43734,0.00121882
8,50,2.47543,0.00121126
9,50,2.51404,0.00120275
10,50,2.55316,0.00119332
11,50,2.59279,0.00118299
12,50,2.63293,0.00117178
13,50,2.67357,0.00115972
14,50,2.7147,0.00114683
15,50,2.75632,0.00113315
16,50,2.79842,0.0011187
17,50,2.84099,0.00110352
18,50,2.88402,0.00108763
19,50,2.9275,0.00107107
20,50,2.97143,0.00105387
21,50,3.01579,0.00103606
22,50,3.06057,0.00101767
23,50,3.10577,0.000998748
24,50,3.15136,0.000979313
25,50,3.19733,0.000959399
26,50,3.24367,0.000939038
27,50,3.29037,0.000918259
28,50,3.33741,0.000897091
29,50,3.38477,0.000875562
30,50,3.43244,0.000853696
31,50,3.48039,0.000831519
32,50,3.52861,0.000809053
33,50,3.57709,0.00078632
34,50,3.62579,0.00076334
35,50,3.6747,0.00074013
36,50,3.7238,0.000716706
37,50,3.77307,0.000693084
38,50,3.82248,0.000669276
39,50,3.872,0.000645293
40,50,3.92162,0.000621145
41,50,3.97131,0.000596841
42,50,4.02105,0.000572386
43,50,4.0708,0.000547787
44,50,4.12054,0.000523047
45,50,4.17024,0.000498169
46,50,4.21988,0.000473154
47,50,4.26942,0.000448004
48,50,4.31884,0.000422718
49,50,4.3681,0.000397295
50,50,4.41718,0.000371735
51,50,4.46604,0.000346036
52,50,4.51466,0.000320196
53,50,4.56299,0.000294215
54,50,4.61102,0.000268092
55,50,4.6587,0.000241828
56,50,4.706,0.000215424
57,50,4.7529,0.000188883
58,50,4.79935,0.000162212
59,50,4.84532,0.000135416
60,50,4.89079,0.000108506
61,50,4.93571,8.14948e-05
62,50,4.98005,5.43955e-05
63,50,5.02378,2.72247e-05
1,51,2.25477,0.00123507
2,51,2.29024,0.00123348
3,51,2.32626,0.00123091
4,51,2.36282,0.00122736
5,51,2.39991,0.00122283
6,51,2.43753,0.00121734
7,51,2.4757,0.00121091
8,51,2.51439,0.00120354
9,51,2.5536,0.00119525
10,51,2.59334,0.00118606
11,51,2.6336,0.00117599
12,51,2.67437,0.00116507
13,51,2.71565,0.00115331
14,51,2.75743,0.00114074
15,51,2.7997,0.00112739
16,51,2.84246,0.00111329
17,51,2.8857,0.00109846
18,51,2.92941,0.00108294
19,51,2.97358,0.00106675
20,51,3.0182,0.00104992
21,51,3.06326,0.00103249
22,51,3.10875,0.00101449
23,51,3.15466,0.000995943
24,51,3.20097,0.000976886
25,51,3.24766,0.000957346
26,51,3.29474,0.000937353
27,51,3.34217,0.000916935
28,51,3.38995,0.000896118
29,51,3.43806,0.000874929
30,51,3.48648,0.000853393
31,51,3.53518,0.000831533
32,51,3.58417,0.000809371
33,51,3.63341,0.000786926
34,51,3.68288,0.000764219
35,51,3.73256,0.000741266
36,51,3.78243,0.000718083
37,51,3.83248,0.000694684
38,51,3.88266,0.000671081
39,51,3.93297,0.000647286
40,51,3.98337,0.000623307
41,51,4.03385,0.000599153
42,51,4.08436,0.00057483
43,51,4.1349,0.000550342
44,51,4.18542,0.000525694
45,51,4.23591,0.000500888
46,51,4.28633,0.000475925
47,51,4.33665,0.000450806
48,51,4.38685,0.000425531
49,51,4.43689,0.000400097
50,51,4.48674,0.000374504
51,51,4.53637,0.00034875
52,51,4.58575,0.000322832
53,51,4.63485,0.00029675
54,51,4.68363,0.000270503
55,51,4.73206,0.00024409
56,51,4.78011,0.000217514
57,51,4.82775,0.000190778
58,51,4.87493,0.000163888
59,51,4.92163,0.000136852
60,51,4.96781,0.000109682
61,51,5.01343,8.23934e-05
62,51,5.05847,5.50029e-05
63,51,5.10289,2.7531e-05
1,52,2.29025,0.00122753
2,52,2.32628,0.00122598
3,52,2.36287,0.00122347
4,52,2.4,0.00122
5,52,2.43767,0.00121558
6,52,2.47589,0.00121023
7,52,2.51466,0.00120395
8,52,2.55396,0.00119676
9,52,2.59379,0.00118868
10,52,2.63416,0.00117971
11,52,2.67505,0.00116989
12,52,2.71646,0.00115922
13,52,2.75839,0.00114774
14,52,2.80083,0.00113547
15,52,2.84377,0.00112242
16,52,2.8872,0.00110864
17,52,2.93112,0.00109414
18,52,2.97552,0.00107895
19,52,3.02039,0.0010631
20,52,3.06571,0.00104662
21,52,3.11148,0.00102954
22,52,3.15769,0.00101189
23,52,3.20432,0.000993695
24,52,3.25136,0.000974987
25,52,3.29879,0.000955792
26,52,3.34661,0.000936139
27,52,3.39479,0.000916054
28,52,3.44332,0.000895563
29,52,3.49219,0.000874691
30,52,3.54137,0.00085346
31,52,3.59084,0.000831895
32,52,3.6406,0.000810015
33,52,3.69061,0.00078784
34,52,3.74086,0.000765388
35,52,3.79133,0.000742675
36,52,3.84199,0.000719718
37,52,3.89282,0.000696528
38,52,3.9438,0.000673119
39,52,3.9949,0.000649501
40,52,4.04609,0.000625682
41,52,4.09736,0.00060167
42,52,4.14868,0.000577471
43,52,4.20001,0.00055309
44,52,4.25133,0.00052853
45,52,4.30261,0.000503792
46,52,4.35382,0.000478879
47,52,4.40494,0.000453789
48,52,4.45593,0.000428523
49,52,4.50675,0.000403077
50,52,4.55739,0.00037745
51,52,4.60781,0.00035164
52,52,4.65796,0.000325643
53,52,4.70784,0.000299457
54,52,4.75739,0.000273082
55,52,4.80658,0.000246516
56,52,4.85539,0.00021976
57,52,4.90377,0.000192819
58,52,4.9517,0.000165698
59,52,4.99913,0.000138406
60,52,5.04604,0.000110958
61,52,5.09238,8.33701e-05
62,52,5.13813,5.56641e-05
63,52,5.18325,2.78649e-05
1,53,2.32629,0.00122097
2,53,2.36289,0.00121946
3,53,2.40005,0.001217
4,53,2.43777,0.00121362
5,53,2.47604,0.0012093
6,53,2.51486,0.00120408
7,53,2.55423,0.00119795
8,53,2.59415,0.00119092
9,53,2.63461,0.00118302
10,53,2.67561,0.00117426
11,53,2.71715,0.00116466
12,53,2.75922,0.00115424
13,53,2.80181,0.00114301
14,53,2.84491,0.001131
15,53,2.88853,0.00111824
16,53,2.93265,0.00110474
17,53,2.97726,0.00109054
18,53,3.02236,0.00107566
19,53,3.06793,0.00106013
20,53,3.11397,0.00104397
21,53,3.16046,0.00102721
22,53,3.2074,0.00100988
23,53,3.25476,0.000992008
24,53,3.30254,0.00097362
25,53,3.35072,0.000954743
26,53,3.39929,0.000935403
27,53,3.44823,0.000915626
28,53,3.49753,0.000895436
29,53,3.54717,0.000874856
30,53,3.59712,0.00085391
31,53,3.64738,0.000832617
32,53,3.69792,0.000811
33,53,3.74872,0.000789075
34,53,3.79976,0.000766861
35,53,3.85102,0.000744374
36,53,3.90248,0.000721627
37,53,3.95411,0.000698635
38,53,4.00589,0.000675408
39,53,4.0578,0.000651956
40,53,4.1098,0.000628288
41,53,4.16188,0.000604411
42,53,4.214,0.00058033
43,53,4.26614,0.00055605
44,53,4.31827,0.000531573
45,53,4.37036,0.000506901
46,53,4.42238,0.000482035
47,53,4.4743,0.000456973
48,53,4.52609,0.000431715
49,53,4.57772,0.000406257
50,53,4.62916,0.000380596
51,53,4.68037,0.000354729
52,53,4.73131,0.000328651
53,53,4.78197,0.000302361
54,53,4.8323,0.000275854
55,53,4.88227,0.00024913
56,53,4.93185,0.000222188
57,53,4.98099,0.000195032
58,53,5.02967,0.000167666
59,53,5.07785,0.000140102
60,53,5.1255,0.000112353
61,53,5.17257,8.44413e-05
62,53,5.21904,5.63907e-05
63,53,5.26487,2.82321e-05
1,54,2.3629,0.00121538
2,54,2.40008,0.0012139
3,54,2.43782,0.0012115
4,54,2.47613,0.00120818
5,54,2.515,0.00120397
6,54,2.55444,0.00119886
7,54,2.59443,0.00119286
8,54,2.63498,0.00118599
9,54,2.67608,0.00117826
10,54,2.71773,0.00116969
11,54,2.75992,0.00116029
12,54,2.80265,0.00115009
13,54,2.84591,0.00113909
14,54,2.88969,0.00112733
15,54,2.934,0.00111482
16,54,2.97881,0.00110159
17,54,3.02413,0.00108767
18,54,3.06993,0.00107307
19,54,3.11623,0.00105782
20,54,3.16299,0.00104195
21,54,3.21022,0.00102549
22,54,3.25789,0.00100846
23,54,3.306,0.000990882
24,54,3.35453,0.000972789
25,54,3.40347,0.000954204
26,54,3.45281,0.000935153
27,54,3.50252,0.000915659
28,54,3.5526,0.000895746
29,54,3.60301,0.000875436
30,54,3.65376,0.000854751
31,54,3.7048,0.000833712
32,54,3.75614,0.000812338
33,54,3.80774,0.000790646
34,54,3.85959,0.000768654
35,54,3.91166,0.000746376
36,54,3.96393,0.000723827
37,54,4.01637,0.000701018
38,54,4.06897,0.000677962
39,54,4.12169,0.000654667
40,54,4.17452,0.000631141
41,54,4.22741,0.000607392
42,54,4.28036,0.000583423
43,54,4.33332,0.000559239
44,54,4.38627,0.000534843
45,54,4.43918,0.000510234
46,54,4.49202,0.000485414
47,54,4.54476,0.000460379
48,54,4.59737,0.000435128
49,54,4.64981,0.000409658
50,54,4.70205,0.000383964
51,54,4.75407,0.000358041
52,54,4.80582,0.000331883
53,54,4.85727,0.000305487
54,54,4.9084,0.000278848
55,54,4.95916,0.000251962
56,54,5.00951,0.000224827
57,54,5.05943,0.000197445
58,54,5.10888,0.000169822
59,54,5.15782,0.000141966
60,54,5.20621,0.000113893
61,54,5.25403,8.56267e-05
62,54,5.30123,5.71967e-05
63,54,5.34778,2.86402e-05
1,55,2.40008,0.00121074
2,55,2.43785,0.00120928
3,55,2.47619,0.00120693
4,55,2.5151,0.00120369
5,55,2.55459,0.00119956
6,55,2.59464,0.00119455
7,55,2.63526,0.00118868
8,55,2.67645,0.00118195
9,55,2.7182,0.00117438
10,55,2.7605,0.00116598
11,55,2.80336,0.00115677
12,55,2.84676,0.00114676
13,55,2.8907,0.00113598
14,55,2.93518,0.00112445
15,55,2.98018,0.00111217
16,55,3.0257,0.00109919
17,55,3.07173,0.00108551
18,55,3.11826,0.00107117
19,55,3.16528,0.00105618
20,55,3.21278,0.00104058
21,55,3.26075,0.00102439
22,55,3.30918,0.00100763
23,55,3.35805,0.00099032
24,55,3.40734,0.000972497
25,55,3.45706,0.00095418
26,55,3.50717,0.000935393
27,55,3.55766,0.000916158
28,55,3.60853,0.0008965
29,55,3.65974,0.000876439
30,55,3.71128,0.000855996
31,55,3.76313,0.00083519
32,55,3.81528,0.000814041
33,55,3.86769,0.000792564
34,55,3.92036,0.000770778
35,55,3.97325,0.000748695
36,55,4.02634,0.00072633
37,55,4.07961,0.000703694
38,55,4.13304,0.000680797
39,55,4.18659,0.00065765
40,55,4.24025,0.000634258
41,55,4.29398,0.00061063
42,55,4.34776,0.000586768
43,55,4.40155,0.000562676
44,55,4.45534,0.000538356
45,55,4.50908,0.000513809
46,55,4.56275,0.000489033
47,55,4.61632,0.000464026
48,55,4.66976,0.000438784
49,55,4.72303,0.000413303
50,55,4.7761,0.000387577
51,55,4.82893,0.0003616
52,55,4.8815,0.000335364
53,55,4.93376,0.000308864
54,55,4.98569,0.000282091
55,55,5.03725,0.000255041
56,55,5.0884,0.000227709
57,55,5.1391,0.000200093
58,55,5.18933,0.000172197
59,55,5.23904,0.00014403
60,55,5.2882,0.000115606
61,55,5.33677,8.69513e-05
62,55,5.38471,5.81005e-05
63,55,5.432,2.90988e-05
1,56,2.43786,0.00120702
2,56,2.47622,0.00120559
3,56,2.51516,0.00120328
4,56,2.55469,0.0012001
5,56,2.59479,0.00119605
6,56,2.63548,0.00119114
7,56,2.67674,0.00118539
8,56,2.71858,0.00117879
9,56,2.76098,0.00117136
10,56,2.80395,0.00116312
11,56,2.84748,0.00115408
12,56,2.89157,0.00114426
13,56,2.9362,0.00113367
14,56,2.98138,0.00112234
15,56,3.02709,0.00111028
16,56,3.07333,0.00109751
17,56,3.12008,0.00108406
18,56,3.16735,0.00106996
19,56,3.21511,0.00105521
20,56,3.26336,0.00103985
21,56,3.31208,0.0010239
22,56,3.36127,0.00100738
23,56,3.41091,0.000990325
24,56,3.46099,0.000972747
25,56,3.51148,0.000954674
26,56,3.56238,0.000936128
27,56,3.61368,0.000917131
28,56,3.66534,0.000897706
29,56,3.71736,0.000877873
30,56,3.76971,0.000857651
31,56,3.82238,0.00083706
32,56,3.87535,0.000816118
33,56,3.92859,0.000794841
34,56,3.98209,0.000773244
35,56,4.03581,0.000751343
36,56,4.08974,0.000729148
37,56,4.14385,0.000706673
38,56,4.19812,0.000683926
39,56,4.25251,0.000660917
40,56,4.30702,0.000637653
41,56,4.36159,0.000614139
42,56,4.41622,0.000590378
43,56,4.47086,0.000566375
44,56,4.52549,0.00054213
45,56,4.58009,0.000517643
46,56,4.6346,0.000492911
47,56,4.68902,0.000467932
48,56,4.7433,0.000442701
49,56,4.7974,0.000417212
50,56,4.85131,0.000391458
51,56,4.90497,0.000365431
52,56,4.95837,0.000339121
53,56,5.01146,0.000312519
54,56,5.06421,0.000285616
55,56,5.11657,0.000258402
56,56,5.16853,0.000230869
57,56,5.22003,0.000203013
58,56,5.27105,0.000174833
59,56,5.32154,0.000146334
60,56,5.37148,0.00011753
61,56,5.42081,8.84471e-05
62,56,5.46951,5.91258e-05
63,56,5.51754,2.96206e-05
1,57,2.47623,0.00120421
2,57,2.51519,0.0012028
3,57,2.55475,0.00120053
4,57,2.59489,0.00119741
5,57,2.63563,0.00119344
6,57,2.67696,0.00118862
7,57,2.71887,0.00118296
8,57,2.76137,0.00117649
9,57,2.80444,0.00116919
10,57,2.84809,0.00116109
11,57,2.8923,0.00115221
12,57,2.93708,0.00114255
13,57,2.98242,0.00113214
14,57,3.02831,0.00112099
15,57,3.07474,0.00110913
16,57,3.12171,0.00109656
17,57,3.1692,0.00108332
18,57,3.21721,0.00106942
19,57,3.26572,0.00105489
20,57,3.31473,0.00103975
21,57,3.36423,0.00102403
22,57,3.41419,0.00100773
23,57,3.46461,0.000990897
24,57,3.51547,0.000973542
25,57,3.56677,0.00095569
26,57,3.61847,0.000937363
27,57,3.67057,0.000918583
28,57,3.72305,0.00089937
29,57,3.77589,0.000879744
30,57,3.82907,0.000859725
31,57,3.88257,0.000839331
32,57,3.93637,0.000818579
33,57,3.99045,0.000797485
34,57,4.04478,0.000776064
35,57,4.09935,0.000754329
36,57,4.15413,0.000732294
37,57,4.2091,0.000709968
38,57,4.26422,0.000687361
39,57,4.31948,0.000664482
40,57,4.37484,0.000641338
41,57,4.43027,0.000617932
42,57,4.48576,0.000594269
43,57,4.54126,0.000570352
44,57,4.59676,0.000546179
45,57,4.65221,0.000521751
46,57,4.70758,0.000497065
47,57,4.76286,0.000472116
48,57,4.81799,0.000446899
49,57,4.87295,0.000421406
50,57,4.9277,0.000395629
51,57,4.98221,0.000369558
52,57,5.03645,0.00034318
53,57,5.09038,0.000316483
54,57,5.14395,0.000289454
55,57,5.19715,0.00026208
56,57,5.24992,0.000234349
57,57,5.30224,0.000206249
58,57,5.35406,0.000177775
59,57,5.40535,0.000148925
60,57,5.45607,0.000119711
61,57,5.50618,9.01563e-05
62,57,5.55564,6.03051e-05
63,57,5.60443,3.02236e-05
1,58,2.5152,0.00120228
2,58,2.55478,0.0012009
3,58,2.59496,0.00119867
4,58,2.63574,0.0011956
5,58,2.67712,0.0011917
6,58,2.7191,0.00118696
7,58,2.76167,0.0011814
8,58,2.80483,0.00117503
9,58,2.84858,0.00116786
10,58,2.89292,0.00115989
11,58,2.93783,0.00115115
12,58,2.98332,0.00114164
13,58,3.02937,0.00113139
14,58,3.07598,0.00112041
15,58,3.12314,0.00110872
16,58,3.17085,0.00109633
17,58,3.21909,0.00108328
18,58,3.26786,0.00106957
19,58,3.31714,0.00105524
20,58,3.36692,0.00104029
21,58,3.41719,0.00102476
22,58,3.46794,0.00100867
23,58,3.51916,0.000992038
24,58,3.57082,0.000974883
25,58,3.62292,0.000957231
26,58,3.67544,0.000939102
27,58,3.72836,0.000920518
28,58,3.78167,0.000901497
29,58,3.83534,0.00088206
30,58,3.88935,0.000862225
31,58,3.9437,0.00084201
32,58,3.99835,0.000821432
33,58,4.05328,0.000800505
34,58,4.10847,0.000779245
35,58,4.1639,0.000757665
36,58,4.21954,0.000735776
37,58,4.27537,0.000713589
38,58,4.33136,0.000691113
39,58,4.38749,0.000668356
40,58,4.44372,0.000645324
41,58,4.50003,0.000622022
42,58,4.55639,0.000598453
43,58,4.61277,0.000574618
44,58,4.66914,0.000550517
45,58,4.72547,0.000526149
46,58,4.78172,0.00050151
47,58,4.83786,0.000476594
48,58,4.89386,0.000451396
49,58,4.94968,0.000425905
50,58,5.0053,0.000400112
51,58,5.06067,0.000374004
52,58,5.11576,0.000347567
53,58,5.17054,0.000320785
54,58,5.22496,0.000293641
55,58,5.27899,0.000266117
56,58,5.3326,0.000238193
57,58,5.38574,0.000209852
58,58,5.43837,0.000181079
59,58,5.49047,0.000151865
60,58,5.54199,0.000122211
61,58,5.59289,9.21365e-05
62,58,5.64313,6.16846e-05
63,58,5.69268,3.09339e-05
1,59,2.55479,0.00120123
2,59,2.59499,0.00119987
3,59,2.6358,0.00119768
4,59,2.67722,0.00119466
5,59,2.71926,0.00119082
6,59,2.7619,0.00118616
7,59,2.80514,0.00118069
8,59,2.84898,0.00117442
9,59,2.89342,0.00116735
10,59,2.93846,0.00115951
11,59,2.98408,0.00115089
12,59,3.03028,0.00114152
13,59,3.07706,0.00113141
14,59,3.1244,0.00112058
15,59,3.17231,0.00110904
16,59,3.22077,0.00109682
17,59,3.26977,0.00108393
18,59,3.3193,0.0010704
19,59,3.36936,0.00105623
20,59,3.41992,0.00104147
21,59,3.47099,0.00102612
22,59,3.52254,0.0010102
23,59,3.57456,0.000993748
24,59,3.62704,0.000976773
25,59,3.67996,0.0009593
26,59,3.73331,0.000941349
27,59,3.78706,0.000922939
28,59,3.84121,0.000904092
29,59,3.89572,0.000884824
30,59,3.95059,0.000865156
31,59,4.00579,0.000845103
32,59,4.0613,0.000824682
33,59,4.1171,0.000803908
34,59,4.17316,0.000782796
35,59,4.22947,0.000761357
36,59,4.28598,0.000739603
37,59,4.34269,0.000717545
38,59,4.39957,0.000695191
39,59,4.45658,0.000672548
40,59,4.5137,0.000649623
41,59,4.57089,0.00062642
42,59,4.62814,0.00060294
43,59,4.68541,0.000579186
44,59,4.74266,0.000555157
45,59,4.79988,0.000530849
46,59,4.85701,0.00050626
47,59,4.91404,0.000481382
48,59,4.97092,0.000456208
49,59,5.02763,0.000430728
50,59,5.08412,0.000404928
51,59,5.14036,0.000378795
52,59,5.19632,0.000352311
53,59,5.25196,0.000325457
54,59,5.30724,0.000298212
55,59,5.36212,0.000270551
56,59,5.41657,0.000242449
57,59,5.47055,0.000213878
58,59,5.52402,0.000184812
59,59,5.57693,0.000155228
60,59,5.62926,0.000125111
61,59,5.68096,9.44675e-05
62,59,5.732,6.3332e-05
63,59,5.78233,3.17919e-05
1,60,2.595,0.00120103
2,60,2.63584,0.00119969
3,60,2.67729,0.00119754
4,60,2.71937,0.00119457
5,60,2.76206,0.00119079
6,60,2.80537,0.0011862
7,60,2.84929,0.00118082
8,60,2.89383,0.00117463
9,60,2.93897,0.00116767
10,60,2.98471,0.00115993
11,60,3.03105,0.00115143
12,60,3.07798,0.00114218
13,60,3.1255,0.0011322
14,60,3.17359,0.0011215
15,60,3.22225,0.0011101
16,60,3.27147,0.00109802
17,60,3.32124,0.00108528
18,60,3.37156,0.00107189
19,60,3.4224,0.00105789
20,60,3.47376,0.00104327
21,60,3.52563,0.00102808
22,60,3.578,0.00101232
23,60,3.63084,0.000996029
24,60,3.68414,0.000979213
25,60,3.7379,0.000961898
26,60,3.79209,0.000944105
27,60,3.84669,0.000925851
28,60,3.90169,0.000907158
29,60,3.95706,0.000888042
30,60,4.01279,0.000868523
31,60,4.06886,0.000848616
32,60,4.12525,0.000828337
33,60,4.18193,0.000807701
34,60,4.23887,0.000786722
35,60,4.29606,0.000765413
36,60,4.35347,0.000743783
37,60,4.41107,0.000721844
38,60,4.46884,0.000699603
39,60,4.52675,0.000677067
40,60,4.58477,0.000654243
41,60,4.64287,0.000631133
42,60,4.70102,0.000607741
43,60,4.75919,0.000584066
44,60,4.81735,0.000560108
45,60,4.87546,0.000535864
46,60,4.9335,0.000511328
47,60,4.99142,0.000486493
48,60,5.0492,0.000461351
49,60,5.1068,0.000435889
50,60,5.16418,0.000410095
51,60,5.22131,0.00038395
52,60,5.27815,0.000357435
53,60,5.33467,0.000330528
54,60,5.39082,0.000303202
55,60,5.44657,0.000275427
56,60,5.50187,0.000247169
57,60,5.5567,0.00021839
58,60,5.61101,0.000189049
59,60,5.66476,0.000159105
60,60,5.71791,0.000128517
61,60,5.77043,9.72635e-05
62,60,5.82227,6.53529e-05
63,60,5.87339,3.28656e-05
1,61,2.63585,0.00120168
2,61,2.67733,0.00120036
3,61,2.71943,0.00119824
4,61,2.76217,0.00119532
5,61,2.80554,0.0011916
6,61,2.84953,0.00118708
7,61,2.89415,0.00118177
8,61,2.93938,0.00117567
9,61,2.98524,0.00116879
10,61,3.0317,0.00116115
11,61,3.07877,0.00115275
12,61,3.12644,0.00114361
13,61,3.1747,0.00113374
14,61,3.22355,0.00112316
15,61,3.27298,0.00111189
16,61,3.32297,0.00109993
17,61,3.37353,0.00108732
18,61,3.42464,0.00107406
19,61,3.47628,0.00106019
20,61,3.52845,0.00104571
21,61,3.58114,0.00103066
22,61,3.63433,0.00101504
23,61,3.688,0.000998881
24,61,3.74215,0.000982204
25,61,3.79675,0.000965028
26,61,3.85179,0.000947373
27,61,3.90725,0.000929257
28,61,3.96312,0.000910699
29,61,4.01937,0.000891718
30,61,4.07598,0.00087233
31,61,4.13293,0.000852552
32,61,4.1902,0.000832401
33,61,4.24777,0.000811889
34,61,4.30562,0.00079103
35,61,4.36371,0.000769838
36,61,4.42202,0.000748321
37,61,4.48053,0.000726491
38,61,4.53921,0.000704355
39,61,4.59803,0.00068192
40,61,4.65696,0.000659191
41,61,4.71598,0.000636171
42,61,4.77505,0.000612864
43,61,4.83413,0.000589268
44,61,4.89321,0.000565382
45,61,4.95223,0.000541203
46,61,5.01119,0.000516724
47,61,5.07002,0.000491939
48,61,5.12871,0.000466837
49,61,5.18722,0.000441406
50,61,5.24551,0.000415629
51,61,5.30354,0.000389489
52,61,5.36127,0.000362963
53,61,5.41868,0.000336025
54,61,5.47571,0.000308644
55,61,5.53234,0.000280785
56,61,5.58852,0.000252406
57,61,5.64421,0.000223456
58,61,5.69937,0.000193878
59,61,5.75397,0.000163606
60,61,5.80796,0.000132568
61,61,5.8613,0.000100689
62,61,5.91396,6.79189e-05
63,61,5.96588,3.42811e-05
1,62,2.67734,0.00120316
2,62,2.71947,0.00120186
3,62,2.76224,0.00119978
4,62,2.80565,0.00119691
5,62,2.8497,0.00119324
6,62,2.89439,0.00118878
7,62,2.93971,0.00118354
8,62,2.98566,0.00117752
9,62,3.03223,0.00117072
10,62,3.07942,0.00116317
11,62,3.12724,0.00115486
12,62,3.17566,0.00114581
13,62,3.22468,0.00113604
14,62,3.2743,0.00112556
15,62,3.3245,0.00111439
16,62,3.37529,0.00110255
17,62,3.42664,0.00109004
18,62,3.47855,0.0010769
19,62,3.53101,0.00106314
20,62,3.58401,0.00104878
21,62,3.63752,0.00103384
22,62,3.69155,0.00101834
23,62,3.74607,0.00100231
24,62,3.80107,0.000985748
25,62,3.85653,0.000968691
26,62,3.91244,0.000951155
27,62,3.96877,0.000933157
28,62,4.02552,0.000914717
29,62,4.08265,0.000895853
30,62,4.14015,0.00087658
31,62,4.19801,0.000856917
32,62,4.25618,0.000836877
33,62,4.31466,0.000816475
34,62,4.37341,0.000795724
35,62,4.43242,0.000774637
36,62,4.49165,0.000753223
37,62,4.55108,0.000731493
38,62,4.61069,0.000709454
39,62,4.67043,0.000687112
40,62,4.7303,0.000664473
41,62,4.79024,0.00064154
42,62,4.85024,0.000618314
43,62,4.91025,0.000594796
44,62,4.97026,0.000570984
45,62,5.03022,0.000546873
46,62,5.0901,0.000522458
47,62,5.14986,0.00049773
48,62,5.20948,0.000472678
49,62,5.26891,0.000447289
50,62,5.32811,0.000421546
51,62,5.38705,0.000395429
52,62,5.4457,0.000368914
53,62,5.50401,0.000341972
54,62,5.56194,0.000314569
55,62,5.61946,0.000286664
56,62,5.67652,0.000258208
57,62,5.73309,0.00022914
58,62,5.78912,0.000199387
59,62,5.84458,0.000168857
60,62,5.89942,0.000137436
61,62,5.95361,0.00010498
62,62,6.00709,7.13201e-05
63,62,6.05983,3.63027e-05
1,63,2.71949,0.00120544
2,63,2.76228,0.00120418
3,63,2.80572,0.00120214
4,63,2.84982,0.00119932
5,63,2.89456,0.00119571
6,63,2.93995,0.00119131
7,63,2.98598,0.00118613
8,63,3.03266,0.00118018
9,63,3.07996,0.00117346
10,63,3.1279,0.00116598
11,63,3.17647,0.00115775
12,63,3.22565,0.00114878
13,63,3.27545,0.0011391
14,63,3.32585,0.0011287
15,63,3.37684,0.00111762
16,63,3.42843,0.00110587
17,63,3.48059,0.00109346
18,63,3.53332,0.00108041
19,63,3.5866,0.00106674
20,63,3.64043,0.00105248
21,63,3.69479,0.00103764
22,63,3.74967,0.00102224
23,63,3.80505,0.0010063
24,63,3.86091,0.000989845
25,63,3.91725,0.000972889
26,63,3.97404,0.000955452
27,63,4.03126,0.000937555
28,63,4.0889,0.000919215
29,63,4.14693,0.00090045
30,63,4.20534,0.000881277
31,63,4.26411,0.000861711
32,63,4.3232,0.000841769
33,63,4.3826,0.000821463
34,63,4.44228,0.000800807
35,63,4.50221,0.000779814
36,63,4.56238,0.000758492
37,63,4.62275,0.000736853
38,63,4.68329,0.000714902
39,63,4.74398,0.000692647
40,63,4.80478,0.000670093
41,63,4.86567,0.000647243
42,63,4.92661,0.000624098
43,63,4.98758,0.000600658
44,63,5.04853,0.000576921
45,63,5.10943,0.000552882
46,63,5.17025,0.000528535
47,63,5.23096,0.000503872
48,63,5.29151,0.000478881
49,63,5.35188,0.000453548
50,63,5.41202,0.000427855
51,63,5.47189,0.000401782
52,63,5.53146,0.000375303
53,63,5.59069,0.000348387
54,63,5.64953,0.000320999
55,63,5.70796,0.000293094
56,63,5.76592,0.000264616
57,63,5.82338,0.0002355
58,63,5.88029,0.000205659
59,63,5.93662,0.000174981
60,63,5.99233,0.000143315
61,63,6.04736,0.000110446
62,63,6.10169,7.60465e-05
63,63,6.15527,3.95719e-05
