18,1,1.34084,0.000151345
19,1,1.36106,0.000138802
20,1,1.38148,0.000124955
21,1,1.4021,0.000111414
22,1,1.42292,9.89135e-05
23,1,1.44394,8.77149e-05
24,1,1.46514,7.78399e-05
25,1,1.48652,6.91992e-05
26,1,1.50807,6.16616e-05
27,1,1.52979,5.50879e-05
28,1,1.55167,4.93471e-05
29,1,1.5737,4.43217e-05
30,1,1.59587,3.99098e-05
31,1,1.61818,3.60241e-05
32,1,1.64061,3.25905e-05
33,1,1.66316,2.95462e-05
34,1,1.68582,2.68379e-05
35,1,1.70858,2.44207e-05
36,1,1.73142,2.22562e-05
37,1,1.75434,2.03119e-05
38,1,1.77732,1.85601e-05
39,1,1.80037,1.69769e-05
40,1,1.82345,1.55418e-05
41,1,1.84657,1.42372e-05
42,1,1.86971,1.30478e-05
43,1,1.89285,1.19603e-05
44,1,1.916,1.0963e-05
45,1,1.93912,1.00459e-05
46,1,1.96222,9.19988e-06
47,1,1.98527,8.41718e-06
48,1,2.00826,7.69075e-06
49,1,2.03118,7.01437e-06
50,1,2.05401,6.38245e-06
51,1,2.07675,5.78997e-06
52,1,2.09937,5.23239e-06
53,1,2.12186,4.70559e-06
54,1,2.1442,4.20579e-06
55,1,2.16639,3.72949e-06
56,1,2.1884,3.27345e-06
57,1,2.21022,2.83462e-06
58,1,2.23183,2.41011e-06
59,1,2.25322,1.99712e-06
60,1,2.27438,1.59286e-06
61,1,2.29528,1.19451e-06
62,1,2.31591,7.98989e-07
63,1,2.33626,4.02609e-07
18,2,1.36211,0.000307203
19,2,1.38263,0.000278927
20,2,1.40336,0.000249625
21,2,1.42429,0.000221808
22,2,1.44543,0.000196545
23,2,1.46676,0.000174127
24,2,1.48829,0.000154466
25,2,1.51,0.000137316
26,2,1.53188,0.00012238
27,2,1.55394,0.000109364
28,2,1.57616,9.79997e-05
29,2,1.59853,8.80508e-05
30,2,1.62104,7.93143e-05
31,2,1.6437,7.1617e-05
32,2,1.66648,6.48125e-05
33,2,1.68938,5.87767e-05
34,2,1.71239,5.34049e-05
35,2,1.73551,4.86083e-05
36,2,1.75871,4.43115e-05
37,2,1.78198,4.04504e-05
38,2,1.80533,3.697e-05
39,2,1.82873,3.38235e-05
40,2,1.85218,3.09704e-05
41,2,1.87566,2.83758e-05
42,2,1.89916,2.60094e-05
43,2,1.92267,2.38451e-05
44,2,1.94618,2.18599e-05
45,2,1.96967,2.00335e-05
46,2,1.99312,1.83484e-05
47,2,2.01654,1.67889e-05
48,2,2.03989,1.53411e-05
49,2,2.06317,1.39927e-05
50,2,2.08637,1.27326e-05
51,2,2.10946,1.15508e-05
52,2,2.13243,1.04384e-05
53,2,2.15528,9.38711e-06
54,2,2.17797,8.38946e-06
55,2,2.20051,7.43852e-06
56,2,2.22286,6.52785e-06
57,2,2.24503,5.65142e-06
58,2,2.26698,4.80347e-06
59,2,2.28871,3.97846e-06
60,2,2.3102,3.17096e-06
61,2,2.33143,2.37547e-06
62,2,2.35238,1.58623e-06
63,2,2.37305,7.9691e-07
18,3,1.38371,0.000469044
19,3,1.40454,0.000420099
20,3,1.42557,0.000372828
21,3,1.44683,0.000329669
22,3,1.46828,0.000291353
23,3,1.48994,0.000257802
24,3,1.5118,0.000228603
25,3,1.53384,0.000203241
26,3,1.55606,0.0001812
27,3,1.57846,0.00016201
28,3,1.60102,0.000145258
29,3,1.62374,0.000130589
30,3,1.64661,0.000117701
31,3,1.66962,0.000106338
32,3,1.69276,9.62866e-05
33,3,1.71601,8.7364e-05
34,3,1.73939,7.94172e-05
35,3,1.76286,7.23163e-05
36,3,1.78642,6.5951e-05
37,3,1.81007,6.02272e-05
38,3,1.83378,5.50648e-05
39,3,1.85755,5.03947e-05
40,3,1.88136,4.61578e-05
41,3,1.90521,4.23027e-05
42,3,1.92908,3.8785e-05
43,3,1.95296,3.5566e-05
44,3,1.97684,3.26119e-05
45,3,2.00069,2.98931e-05
46,3,2.02452,2.73835e-05
47,3,2.0483,2.50599e-05
48,3,2.07202,2.2902e-05
49,3,2.09567,2.08913e-05
50,3,2.11923,1.90117e-05
51,3,2.14268,1.72482e-05
52,3,2.16602,1.55877e-05
53,3,2.18922,1.40179e-05
54,3,2.21228,1.25278e-05
55,3,2.23516,1.11071e-05
56,3,2.25787,9.74617e-06
57,3,2.28038,8.43616e-06
58,3,2.30268,7.16855e-06
59,3,2.32475,5.93517e-06
60,3,2.34658,4.72806e-06
61,3,2.36814,3.53929e-06
62,3,2.38943,2.36077e-06
63,3,2.41042,1.18403e-06
18,4,1.40566,0.000634731
19,4,1.42679,0.000559616
20,4,1.44814,0.00049194
21,4,1.46971,0.000432706
22,4,1.49149,0.000381417
23,4,1.51348,0.000337146
24,4,1.53567,0.000298925
25,4,1.55805,0.000265865
26,4,1.58062,0.00023719
27,4,1.60336,0.00021224
28,4,1.62628,0.000190456
29,4,1.64935,0.000171368
30,4,1.67257,0.000154583
31,4,1.69594,0.00013977
32,4,1.71944,0.000126653
33,4,1.74306,0.000114997
34,4,1.7668,0.000104604
35,4,1.79064,9.53091e-05
36,4,1.81457,8.69687e-05
37,4,1.83859,7.94623e-05
38,4,1.86267,7.26861e-05
39,4,1.88682,6.65513e-05
40,4,1.911,6.09811e-05
41,4,1.93523,5.59092e-05
42,4,1.95947,5.1278e-05
43,4,1.98373,4.70372e-05
44,4,2.00798,4.31431e-05
45,4,2.03221,3.95569e-05
46,4,2.05641,3.62447e-05
47,4,2.08056,3.31765e-05
48,4,2.10466,3.03254e-05
49,4,2.12868,2.76677e-05
50,4,2.15261,2.51819e-05
51,4,2.17643,2.28487e-05
52,4,2.20013,2.06508e-05
53,4,2.2237,1.85722e-05
54,4,2.24712,1.65982e-05
55,4,2.27037,1.47156e-05
56,4,2.29343,1.29117e-05
57,4,2.3163,1.11749e-05
58,4,2.33895,9.49398e-06
59,4,2.36136,7.85836e-06
60,4,2.38353,6.25769e-06
61,4,2.40544,4.6818e-06
62,4,2.42706,3.12051e-06
63,4,2.44838,1.56345e-06
18,5,1.42795,0.00079785
19,5,1.44938,0.000691716
20,5,1.47105,0.000602632
21,5,1.49294,0.000527819
22,5,1.51505,0.000464483
23,5,1.53738,0.000410463
24,5,1.55991,0.000364108
25,5,1.58264,0.000324125
26,5,1.60556,0.000289478
27,5,1.62866,0.000259326
28,5,1.65193,0.000232979
29,5,1.67536,0.000209866
30,5,1.69895,0.000189515
31,5,1.72268,0.000171529
32,5,1.74655,0.00015558
33,5,1.77054,0.000141387
34,5,1.79465,0.000128716
35,5,1.81886,0.000117368
36,5,1.84317,0.000107173
37,5,1.86756,9.79869e-05
38,5,1.89202,8.96854e-05
39,5,1.91654,8.21618e-05
40,5,1.94111,7.53241e-05
41,5,1.96572,6.90922e-05
42,5,1.99034,6.33969e-05
43,5,2.01498,5.81774e-05
44,5,2.03961,5.33808e-05
45,5,2.06422,4.89602e-05
46,5,2.0888,4.48745e-05
47,5,2.11334,4.10872e-05
48,5,2.13781,3.75657e-05
49,5,2.16221,3.4281e-05
50,5,2.18651,3.12069e-05
51,5,2.21071,2.83201e-05
52,5,2.23479,2.55992e-05
53,5,2.25872,2.30247e-05
54,5,2.28251,2.05788e-05
55,5,2.30612,1.82451e-05
56,5,2.32955,1.60083e-05
57,5,2.35278,1.3854e-05
58,5,2.37578,1.17686e-05
59,5,2.39855,9.73923e-06
60,5,2.42107,7.75327e-06
61,5,2.44332,5.7985e-06
62,5,2.46528,3.86279e-06
63,5,2.48694,1.93403e-06
17,6,1.42915,0.00116325
18,6,1.45058,0.000947838
19,6,1.47231,0.000806788
20,6,1.4943,0.000699071
21,6,1.51653,0.000611479
22,6,1.53898,0.000538254
23,6,1.56165,0.000476136
24,6,1.58453,0.000422941
25,6,1.60761,0.000377071
26,6,1.63089,0.000337294
27,6,1.65434,0.00030263
28,6,1.67798,0.00027229
29,6,1.70177,0.000245626
30,6,1.72573,0.000222102
31,6,1.74983,0.000201275
32,6,1.77407,0.000182771
33,6,1.79844,0.000166276
34,6,1.82293,0.000151526
35,6,1.84752,0.000138294
36,6,1.87221,0.000126389
37,6,1.89698,0.000115647
38,6,1.92183,0.000105926
39,6,1.94674,9.71056e-05
40,6,1.97169,8.90794e-05
41,6,1.99668,8.17563e-05
42,6,2.0217,7.50566e-05
43,6,2.04672,6.89107e-05
44,6,2.07174,6.32573e-05
45,6,2.09674,5.80425e-05
46,6,2.1217,5.32187e-05
47,6,2.14662,4.87436e-05
48,6,2.17148,4.45794e-05
49,6,2.19626,4.06925e-05
50,6,2.22095,3.70524e-05
51,6,2.24553,3.36318e-05
52,6,2.26998,3.04058e-05
53,6,2.2943,2.73517e-05
54,6,2.31846,2.44487e-05
55,6,2.34244,2.16776e-05
56,6,2.36624,1.90204e-05
57,6,2.38983,1.64604e-05
58,6,2.4132,1.39817e-05
59,6,2.43633,1.15692e-05
60,6,2.4592,9.20825e-06
61,6,2.48179,6.88473e-06
62,6,2.5041,4.58471e-06
63,6,2.5261,2.29439e-06
17,7,1.45164,0.00117321
18,7,1.47348,0.00102348
19,7,1.49556,0.000888549
20,7,1.51789,0.000775408
21,7,1.54047,0.000680792
22,7,1.56327,0.000600941
23,7,1.58629,0.000532907
24,7,1.60953,0.000474472
25,7,1.63297,0.000423948
26,7,1.65661,0.000380018
27,7,1.68043,0.000341633
28,7,1.70443,0.000307947
29,7,1.7286,0.000278267
30,7,1.75293,0.000252017
31,7,1.77741,0.000228721
32,7,1.80203,0.000207976
33,7,1.82678,0.000189444
34,7,1.85165,0.000172838
35,7,1.87663,0.000157915
36,7,1.90171,0.000144464
37,7,1.92687,0.000132306
38,7,1.95211,0.000121287
39,7,1.97741,0.000111274
40,7,2.00275,0.00010215
41,7,2.02814,9.38147e-05
42,7,2.05354,8.61796e-05
43,7,2.07896,7.91674e-05
44,7,2.10437,7.27102e-05
45,7,2.12976,6.67478e-05
46,7,2.15512,6.12272e-05
47,7,2.18043,5.61008e-05
48,7,2.20568,5.13264e-05
49,7,2.23085,4.68663e-05
50,7,2.25593,4.26861e-05
51,7,2.28089,3.87551e-05
52,7,2.30573,3.50452e-05
53,7,2.33043,3.15308e-05
54,7,2.35497,2.81883e-05
55,7,2.37933,2.49959e-05
56,7,2.4035,2.19334e-05
57,7,2.42747,1.89817e-05
58,7,2.4512,1.6123e-05
59,7,2.47469,1.33399e-05
60,7,2.49792,1.06162e-05
61,7,2.52088,7.93589e-06
62,7,2.54354,5.28331e-06
63,7,2.56588,2.6431e-06
17,8,1.47455,0.00124276
18,8,1.49673,0.00108436
19,8,1.51916,0.000948536
20,8,1.54184,0.000833243
21,8,1.56477,0.00073536
22,8,1.58793,0.000651834
23,8,1.61131,0.000580101
24,8,1.63491,0.000518116
25,8,1.65872,0.000464254
26,8,1.68273,0.000417218
27,8,1.70692,0.00037596
28,8,1.7313,0.000339623
29,8,1.75585,0.000307499
30,8,1.78056,0.000279002
31,8,1.80542,0.000253637
32,8,1.83043,0.00023099
33,8,1.85557,0.000210708
34,8,1.88083,0.000192492
35,8,1.9062,0.000176084
36,8,1.93167,0.000161266
37,8,1.95723,0.000147847
38,8,1.98286,0.000135663
39,8,2.00856,0.000124573
40,8,2.0343,0.000114451
41,8,2.06009,0.000105191
42,8,2.08589,9.66967e-05
43,8,2.11171,8.88855e-05
44,8,2.13752,8.16835e-05
45,8,2.16331,7.50257e-05
46,8,2.18907,6.88544e-05
47,8,2.21478,6.31178e-05
48,8,2.24042,5.77699e-05
49,8,2.26599,5.27693e-05
50,8,2.29146,4.80785e-05
51,8,2.31682,4.36637e-05
52,8,2.34205,3.9494e-05
53,8,2.36713,3.55411e-05
54,8,2.39206,3.17792e-05
55,8,2.4168,2.81841e-05
56,8,2.44136,2.47335e-05
57,8,2.46569,2.14063e-05
58,8,2.4898,1.81827e-05
59,8,2.51367,1.50437e-05
60,8,2.53726,1.19711e-05
61,8,2.56058,8.94753e-06
62,8,2.58359,5.95568e-06
63,8,2.60629,2.97873e-06
16,9,1.47558,0.00150835
17,9,1.4978,0.00128648
18,9,1.52032,0.00112268
19,9,1.54311,0.000988015
20,9,1.56615,0.000873688
21,9,1.58944,0.000775596
22,9,1.61296,0.000690955
23,9,1.63672,0.000617571
24,9,1.66069,0.000553659
25,9,1.68487,0.000497758
26,9,1.70925,0.000448665
27,9,1.73383,0.00040539
28,9,1.75859,0.000367108
29,9,1.78352,0.00033313
30,9,1.80862,0.000302877
31,9,1.83387,0.000275859
32,9,1.85927,0.000251662
33,9,1.88481,0.000229929
34,9,1.91046,0.000210358
35,9,1.93623,0.000192687
36,9,1.9621,0.00017669
37,9,1.98806,0.000162173
38,9,2.0141,0.000148966
39,9,2.0402,0.000136922
40,9,2.06635,0.00012591
41,9,2.09254,0.000115819
42,9,2.11875,0.000106549
43,9,2.14497,9.80108e-05
44,9,2.17119,9.01282e-05
45,9,2.19738,8.28317e-05
46,9,2.22355,7.606e-05
47,9,2.24966,6.97582e-05
48,9,2.27571,6.38769e-05
49,9,2.30168,5.83719e-05
50,9,2.32755,5.32029e-05
51,9,2.35331,4.83336e-05
52,9,2.37893,4.37308e-05
53,9,2.40441,3.93639e-05
54,9,2.42973,3.52049e-05
55,9,2.45487,3.12277e-05
56,9,2.4798,2.74082e-05
57,9,2.50453,2.37234e-05
58,9,2.52901,2.01519e-05
59,9,2.55325,1.66731e-05
60,9,2.57722,1.32673e-05
61,9,2.6009,9.91546e-06
62,9,2.62428,6.59909e-06
63,9,2.64733,3.29994e-06
15,10,1.47625,0.00150746
16,10,1.4987,0.00141861
17,10,1.52135,0.00127214
18,10,1.54425,0.00113187
19,10,1.56741,0.00100718
20,10,1.59083,0.00089792
21,10,1.61448,0.000802404
22,10,1.63838,0.000718842
23,10,1.66251,0.000645592
24,10,1.68686,0.000581216
25,10,1.71142,0.000524476
26,10,1.73619,0.000474319
27,10,1.76115,0.000429851
28,10,1.7863,0.000390313
29,10,1.81162,0.000355059
30,10,1.83712,0.00032354
31,10,1.86277,0.000295285
32,10,1.88857,0.000269892
33,10,1.9145,0.000247012
34,10,1.94056,0.000226347
35,10,1.96674,0.000207637
36,10,1.99301,0.000190657
37,10,2.01938,0.000175211
38,10,2.04583,0.000161128
39,10,2.07234,0.000148258
40,10,2.0989,0.000136469
41,10,2.1255,0.000125646
42,10,2.15212,0.000115685
43,10,2.17875,0.000106498
44,10,2.20538,9.80024e-05
45,10,2.23199,9.01276e-05
46,10,2.25857,8.28094e-05
47,10,2.28509,7.59903e-05
48,10,2.31155,6.96187e-05
49,10,2.33793,6.36479e-05
50,10,2.36421,5.80357e-05
51,10,2.39037,5.27437e-05
52,10,2.4164,4.77365e-05
53,10,2.44228,4.2982e-05
54,10,2.468,3.84502e-05
55,10,2.49353,3.41135e-05
56,10,2.51886,2.9946e-05
57,10,2.54397,2.59233e-05
58,10,2.56884,2.20224e-05
59,10,2.59346,1.82215e-05
60,10,2.61781,1.44994e-05
61,10,2.64186,1.08358e-05
62,10,2.66561,7.21099e-06
63,10,2.68902,3.60545e-06
15,11,1.4995,0.00152853
16,11,1.52225,0.00138652
17,11,1.54527,0.00125163
18,11,1.56855,0.00112551
19,11,1.59208,0.00101095
20,11,1.61587,0.000908429
21,11,1.63991,0.000817281
22,11,1.66419,0.00073644
23,11,1.6887,0.000664763
24,11,1.71343,0.000601159
25,11,1.73838,0.000544635
26,11,1.76354,0.000494308
27,11,1.78889,0.000449406
28,11,1.81444,0.000409257
29,11,1.84016,0.000373278
30,11,1.86606,0.000340963
31,11,1.89211,0.000311874
32,11,1.91832,0.000285632
33,11,1.94466,0.000261905
34,11,1.97113,0.000240405
35,11,1.99772,0.000220881
36,11,2.02441,0.000203113
37,11,2.05119,0.000186908
38,11,2.07805,0.000172098
39,11,2.10498,0.000158533
40,11,2.13196,0.000146082
41,11,2.15898,0.000134628
42,11,2.18602,0.000124067
43,11,2.21307,0.00011431
44,11,2.24012,0.000105272
45,11,2.26715,9.68819e-05
46,11,2.29414,8.90733e-05
47,11,2.32108,8.17874e-05
48,11,2.34796,7.49707e-05
49,11,2.37475,6.85751e-05
50,11,2.40144,6.25567e-05
51,11,2.42801,5.68755e-05
52,11,2.45445,5.14947e-05
53,11,2.48074,4.63807e-05
54,11,2.50686,4.15021e-05
55,11,2.5328,3.68299e-05
56,11,2.55853,3.23368e-05
57,11,2.58403,2.79973e-05
58,11,2.6093,2.3787e-05
59,11,2.6343,1.96829e-05
60,11,2.65903,1.56628e-05
61,11,2.68346,1.17051e-05
62,11,2.70758,7.78909e-06
63,11,2.73137,3.89412e-06
14,12,1.50022,0.00165356
15,12,1.52304,0.00148602
16,12,1.54616,0.00134731
17,12,1.56955,0.00122238
18,12,1.59321,0.0011076
19,12,1.61713,0.0010027
20,12,1.6413,0.000907589
21,12,1.66573,0.000821874
22,12,1.69039,0.000744896
23,12,1.71529,0.000675885
24,12,1.74042,0.000614048
25,12,1.76576,0.000558621
26,12,1.79132,0.000508896
27,12,1.81707,0.000464233
28,12,1.84302,0.000424056
29,12,1.86915,0.000387857
30,12,1.89545,0.000355184
31,12,1.92192,0.000325642
32,12,1.94854,0.000298881
33,12,1.97529,0.000274593
34,12,2.00218,0.00025251
35,12,2.02919,0.000232391
36,12,2.0563,0.000214027
37,12,2.0835,0.000197233
38,12,2.11078,0.000181845
39,12,2.13813,0.000167716
40,12,2.16554,0.000154717
41,12,2.19298,0.000142735
42,12,2.22045,0.000131666
43,12,2.24793,0.000121418
44,12,2.2754,0.000111911
45,12,2.30285,0.00010307
46,12,2.33027,9.48286e-05
47,12,2.35764,8.71278e-05
48,12,2.38494,7.99129e-05
49,12,2.41215,7.31349e-05
50,12,2.43926,6.67488e-05
51,12,2.46625,6.07136e-05
52,12,2.49311,5.49914e-05
53,12,2.51981,4.95474e-05
54,12,2.54634,4.43493e-05
55,12,2.57268,3.93669e-05
56,12,2.59882,3.4572e-05
57,12,2.62473,2.99379e-05
58,12,2.65039,2.54393e-05
59,12,2.67579,2.10522e-05
60,12,2.70091,1.67534e-05
61,12,2.72572,1.25204e-05
62,12,2.75022,8.33136e-06
63,12,2.77438,4.16496e-06
13,13,1.50075,0.0016673
14,13,1.52371,0.00154397
15,13,1.54693,0.00141471
16,13,1.57044,0.00129435
17,13,1.59421,0.001183
18,13,1.61826,0.00107984
19,13,1.64256,0.00098467
20,13,1.66713,0.000897381
21,13,1.69194,0.000817754
22,13,1.717,0.000745411
23,13,1.7423,0.000679858
24,13,1.76782,0.000620551
25,13,1.79357,0.000566929
26,13,1.81953,0.000518449
27,13,1.84569,0.000474598
28,13,1.87205,0.000434903
29,13,1.89859,0.000398934
30,13,1.92531,0.0003663
31,13,1.95219,0.000336653
32,13,1.97923,0.00030968
33,13,2.00641,0.000285103
34,13,2.03372,0.000262673
35,13,2.06115,0.00024217
36,13,2.08868,0.000223396
37,13,2.11632,0.000206175
38,13,2.14403,0.000190353
39,13,2.17181,0.000175789
40,13,2.19965,0.000162357
41,13,2.22752,0.000149948
42,13,2.25542,0.000138461
43,13,2.28333,0.000127805
44,13,2.31124,0.0001179
45,13,2.33912,0.000108673
46,13,2.36697,0.000100058
47,13,2.39477,9.1995e-05
48,13,2.4225,8.44298e-05
49,13,2.45014,7.73128e-05
50,13,2.47768,7.05986e-05
51,13,2.50509,6.42455e-05
52,13,2.53237,5.8215e-05
53,13,2.5595,5.24717e-05
54,13,2.58644,4.69824e-05
55,13,2.6132,4.17162e-05
56,13,2.63975,3.66441e-05
57,13,2.66606,3.17387e-05
58,13,2.69213,2.69739e-05
59,13,2.71793,2.23249e-05
60,13,2.74344,1.77676e-05
61,13,2.76865,1.32788e-05
62,13,2.79353,8.83606e-06
63,13,2.81807,4.41709e-06
12,14,1.50119,0.00166002
13,14,1.52424,0.00154662
14,14,1.54758,0.00144034
15,14,1.57119,0.00133453
16,14,1.59508,0.0012324
17,14,1.61925,0.00113543
18,14,1.64369,0.00104413
19,14,1.66839,0.000958783
20,14,1.69335,0.000879533
21,14,1.71856,0.000806376
22,14,1.74402,0.000739158
23,14,1.76972,0.000677611
24,14,1.79565,0.000621393
25,14,1.82181,0.00057012
26,14,1.84818,0.000523397
27,14,1.87476,0.000480832
28,14,1.90153,0.000442051
29,14,1.92849,0.0004067
30,14,1.95563,0.000374454
31,14,1.98294,0.000345015
32,14,2.0104,0.000318109
33,14,2.03801,0.00029349
34,14,2.06575,0.000270935
35,14,2.09361,0.000250243
36,14,2.12158,0.000231233
37,14,2.14965,0.000213743
38,14,2.1778,0.000197625
39,14,2.20602,0.00018275
40,14,2.23429,0.000168997
41,14,2.2626,0.00015626
42,14,2.29094,0.000144443
43,14,2.31929,0.000133458
44,14,2.34764,0.000123228
45,14,2.37596,0.00011368
46,14,2.40425,0.000104749
47,14,2.43248,9.63775e-05
48,14,2.46065,8.85102e-05
49,14,2.48872,8.10981e-05
50,14,2.5167,7.40959e-05
51,14,2.54455,6.74617e-05
52,14,2.57225,6.11568e-05
53,14,2.5998,5.51455e-05
54,14,2.62718,4.9394e-05
55,14,2.65435,4.38712e-05
56,14,2.68132,3.85474e-05
57,14,2.70805,3.33947e-05
58,14,2.73452,2.83865e-05
59,14,2.76073,2.34973e-05
60,14,2.78664,1.87025e-05
61,14,2.81225,1.39784e-05
62,14,2.83752,9.30177e-06
63,14,2.86245,4.6498e-06
10,15,1.47849,0.00152177
11,15,1.50145,0.0015384
12,15,1.52464,0.00149304
13,15,1.54809,0.00141882
14,15,1.57182,0.00133628
15,15,1.59583,0.00125067
16,15,1.62012,0.00116532
17,15,1.64468,0.00108222
18,15,1.66951,0.00100249
19,15,1.69461,0.000926821
20,15,1.71998,0.000855617
21,15,1.7456,0.000789083
22,15,1.77146,0.000727259
23,15,1.79757,0.000670061
24,15,1.82392,0.000617315
25,15,1.85049,0.000568788
26,15,1.87728,0.000524213
27,15,1.90427,0.000483309
28,15,1.93147,0.000445793
29,15,1.95886,0.000411387
30,15,1.98643,0.000379829
31,15,2.01416,0.000350869
32,15,2.04206,0.000324276
33,15,2.0701,0.000299838
34,15,2.09828,0.000277358
35,15,2.12658,0.000256658
36,15,2.15499,0.000237575
37,15,2.1835,0.00021996
38,15,2.2121,0.000203679
39,15,2.24076,0.00018861
40,15,2.26948,0.000174641
41,15,2.29824,0.000161672
42,15,2.32702,0.000149611
43,15,2.35582,0.000138376
44,15,2.38461,0.00012789
45,15,2.41338,0.000118085
46,15,2.44211,0.000108897
47,15,2.47079,0.000100269
48,15,2.4994,9.21473e-05
49,15,2.52792,8.4484e-05
50,15,2.55633,7.72339e-05
51,15,2.58462,7.03556e-05
52,15,2.61276,6.38106e-05
53,15,2.64075,5.75628e-05
54,15,2.66855,5.15788e-05
55,15,2.69615,4.58269e-05
56,15,2.72354,4.02774e-05
57,15,2.75069,3.4902e-05
58,15,2.77759,2.96737e-05
59,15,2.8042,2.45667e-05
60,15,2.83053,1.9556e-05
61,15,2.85654,1.46174e-05
62,15,2.88221,9.72734e-06
63,15,2.90753,4.86252e-06
9,16,1.47875,0.00153008
10,16,1.50166,0.00143364
11,16,1.52493,0.00139722
12,16,1.54849,0.00135492
13,16,1.57233,0.00129938
14,16,1.59645,0.00123531
15,16,1.62086,0.00116658
16,16,1.64554,0.00109602
17,16,1.67051,0.00102565
18,16,1.69574,0.000956815
19,16,1.72125,0.000890417
20,16,1.74702,0.000827056
21,16,1.77305,0.000767105
22,16,1.79933,0.00071076
23,16,1.82586,0.000658085
24,16,1.85262,0.000609044
25,16,1.87961,0.000563528
26,16,1.90683,0.000521384
27,16,1.93425,0.000482424
28,16,1.96188,0.00044645
29,16,1.9897,0.000413254
30,16,2.01771,0.00038263
31,16,2.04588,0.000354381
32,16,2.07422,0.000328315
33,16,2.1027,0.000304252
34,16,2.13132,0.000282027
35,16,2.16007,0.000261481
36,16,2.18893,0.000242472
37,16,2.21789,0.000224867
38,16,2.24693,0.000208544
39,16,2.27605,0.000193391
40,16,2.30522,0.000179306
41,16,2.33443,0.000166196
42,16,2.36367,0.000153974
43,16,2.39292,0.000142563
44,16,2.42216,0.00013189
45,16,2.45139,0.000121889
46,16,2.48057,0.0001125
47,16,2.5097,0.000103667
48,16,2.53876,9.53382e-05
49,16,2.56773,8.7467e-05
50,16,2.59659,8.00091e-05
51,16,2.62532,7.29236e-05
52,16,2.65391,6.61725e-05
53,16,2.68233,5.97201e-05
54,16,2.71057,5.35331e-05
55,16,2.73861,4.758e-05
56,16,2.76643,4.1831e-05
57,16,2.79401,3.62577e-05
58,16,2.82133,3.08331e-05
59,16,2.84836,2.5531e-05
60,16,2.8751,2.03263e-05
61,16,2.90152,1.51946e-05
62,16,2.9276,1.0112e-05
63,16,2.95331,5.05484e-06
6,17,1.43343,0.00118785
7,17,1.45587,0.00119277
8,17,1.47868,0.00126007
9,17,1.50179,0.00130298
10,17,1.52514,0.0012855
11,17,1.54878,0.00126193
12,17,1.57273,0.00123007
13,17,1.59696,0.00118847
14,17,1.62148,0.00113905
15,17,1.64628,0.00108432
16,17,1.67137,0.00102656
17,17,1.69674,0.000967576
18,17,1.72238,0.000908724
19,17,1.7483,0.000851
20,17,1.77449,0.000795111
21,17,1.80093,0.000741545
22,17,1.82764,0.000690617
23,17,1.85458,0.000642501
24,17,1.88177,0.000597273
25,17,1.9092,0.000554925
26,17,1.93684,0.000515395
27,17,1.9647,0.000478582
28,17,1.99277,0.000444356
29,17,2.02103,0.000412574
30,17,2.04947,0.000383085
31,17,2.07809,0.000355736
32,17,2.10688,0.000330375
33,17,2.13581,0.000306857
34,17,2.16489,0.00028504
35,17,2.19409,0.000264793
36,17,2.2234,0.00024599
37,17,2.25282,0.000228516
38,17,2.28232,0.000212262
39,17,2.31189,0.000197127
40,17,2.34152,0.000183019
41,17,2.37119,0.000169852
42,17,2.40089,0.000157547
43,17,2.4306,0.00014603
44,17,2.46031,0.000135234
45,17,2.48999,0.000125097
46,17,2.51964,0.000115561
47,17,2.54923,0.000106573
48,17,2.57874,9.80841e-05
49,17,2.60817,9.00475e-05
50,17,2.63748,8.24209e-05
51,17,2.66666,7.51645e-05
52,17,2.6957,6.82411e-05
53,17,2.72457,6.16157e-05
54,17,2.75326,5.52553e-05
55,17,2.78174,4.91288e-05
56,17,2.81,4.32065e-05
57,17,2.83801,3.74604e-05
58,17,2.86576,3.18632e-05
59,17,2.89322,2.6389e-05
60,17,2.92038,2.10125e-05
61,17,2.94721,1.57092e-05
62,17,2.9737,1.04551e-05
63,17,2.99982,5.2265e-06
1,18,1.3458,0.000155573
2,18,1.36715,0.000314561
3,18,1.38882,0.000478964
4,18,1.41082,0.000646881
5,18,1.43313,0.000812178
6,18,1.45576,0.000964865
7,18,1.47862,0.00103961
8,18,1.50179,0.00109922
9,18,1.52525,0.00113627
10,18,1.54899,0.00114348
11,18,1.57303,0.00113495
12,18,1.59736,0.001115
13,18,1.62198,0.0010854
14,18,1.6469,0.0010481
15,18,1.67211,0.00100512
16,18,1.69761,0.000958349
17,18,1.72338,0.00090939
18,18,1.74944,0.000859531
19,18,1.77578,0.000809772
20,18,1.80238,0.000760868
21,18,1.82925,0.000713375
22,18,1.85638,0.000667685
23,18,1.88376,0.000624057
24,18,1.91138,0.000582648
25,18,1.93924,0.000543531
26,18,1.96733,0.000506718
27,18,1.99563,0.000472178
28,18,2.02414,0.000439844
29,18,2.05285,0.000409628
30,18,2.08174,0.000381426
31,18,2.11081,0.000355129
32,18,2.14005,0.00033062
33,18,2.16944,0.000307785
34,18,2.19898,0.00028651
35,18,2.22864,0.000266685
36,18,2.25841,0.000248205
37,18,2.28829,0.000230969
38,18,2.31826,0.000214883
39,18,2.3483,0.000199859
40,18,2.37839,0.000185813
41,18,2.40853,0.000172668
42,18,2.4387,0.000160351
43,18,2.46888,0.000148795
44,18,2.49905,0.000137938
45,18,2.52921,0.000127721
46,18,2.55932,0.00011809
47,18,2.58937,0.000108996
48,18,2.61935,0.00010039
49,18,2.64924,9.22288e-05
50,18,2.67901,8.44717e-05
51,18,2.70866,7.70799e-05
52,18,2.73815,7.00174e-05
53,18,2.76748,6.325e-05
54,18,2.79662,5.67454e-05
55,18,2.82555,5.0473e-05
56,18,2.85425,4.44037e-05
57,18,2.8827,3.85095e-05
58,18,2.91089,3.27637e-05
59,18,2.93878,2.71403e-05
60,18,2.96637,2.16142e-05
61,18,2.99362,1.61609e-05
62,18,3.02053,1.07566e-05
63,18,3.04706,5.37738e-06
1,19,1.36698,0.000141913
2,19,1.38864,0.000284722
3,19,1.41063,0.000428179
4,19,1.43295,0.00056966
5,19,1.45558,0.000703455
6,19,1.47852,0.000819845
7,19,1.50175,0.0009016
8,19,1.52528,0.000960942
9,19,1.54911,0.000999428
10,19,1.57324,0.00101721
11,19,1.59767,0.00101941
12,19,1.62239,0.00100958
13,19,1.64741,0.000990074
14,19,1.67274,0.000962853
15,19,1.69835,0.000929731
16,19,1.72426,0.000892349
17,19,1.75045,0.00085213
18,19,1.77693,0.000810263
19,19,1.80369,0.000767713
20,19,1.83072,0.00072524
21,19,1.85802,0.000683429
22,19,1.88558,0.000642718
23,19,1.9134,0.000603422
24,19,1.94146,0.000565757
25,19,1.96976,0.000529858
26,19,1.99829,0.000495797
27,19,2.02704,0.000463596
28,19,2.056,0.000433242
29,19,2.08516,0.000404694
30,19,2.11451,0.000377891
31,19,2.14405,0.00035276
32,19,2.17375,0.000329219
33,19,2.2036,0.00030718
34,19,2.2336,0.000286556
35,19,2.26373,0.000267259
36,19,2.29398,0.0002492
37,19,2.32432,0.000232297
38,19,2.35476,0.000216468
39,19,2.38528,0.000201636
40,19,2.41585,0.000187729
41,19,2.44646,0.000174676
42,19,2.47711,0.000162414
43,19,2.50776,0.000150881
44,19,2.53841,0.000140019
45,19,2.56903,0.000129776
46,19,2.59962,0.000120099
47,19,2.63015,0.000110943
48,19,2.6606,0.000102263
49,19,2.69096,9.40172e-05
50,19,2.7212,8.61664e-05
51,19,2.75131,7.86737e-05
52,19,2.78127,7.15043e-05
53,19,2.81106,6.46252e-05
54,19,2.84066,5.8005e-05
55,19,2.87004,5.16139e-05
56,19,2.8992,4.54233e-05
57,19,2.9281,3.94057e-05
58,19,2.95673,3.35348e-05
59,19,2.98506,2.7785e-05
60,19,3.01308,2.21315e-05
61,19,3.04077,1.65498e-05
62,19,3.0681,1.10163e-05
63,19,3.09505,5.5075e-06
1,20,1.38849,0.000127371
2,20,1.41047,0.000254249
3,20,1.43279,0.000379386
4,20,1.45543,0.000500141
5,20,1.4784,0.000612153
6,20,1.50168,0.000709478
7,20,1.52527,0.000786021
8,20,1.54917,0.000843541
9,20,1.57338,0.000883304
10,20,1.59789,0.00090656
11,20,1.62271,0.000915917
12,20,1.64783,0.000913869
13,20,1.67325,0.000902478
14,20,1.69898,0.00088353
15,20,1.72501,0.000858627
16,20,1.75133,0.000829209
17,20,1.77795,0.000796541
18,20,1.80485,0.000761705
19,20,1.83204,0.000725604
20,20,1.8595,0.000688976
21,20,1.88724,0.000652409
22,20,1.91524,0.000616362
23,20,1.9435,0.000581183
24,20,1.972,0.000547128
25,20,2.00075,0.000514375
26,20,2.02974,0.000483042
27,20,2.05894,0.000453195
28,20,2.08836,0.000424863
29,20,2.11799,0.000398043
30,20,2.1478,0.000372713
31,20,2.1778,0.00034883
32,20,2.20797,0.000326342
33,20,2.2383,0.000305188
34,20,2.26877,0.000285303
35,20,2.29937,0.000266619
36,20,2.3301,0.000249066
37,20,2.36092,0.000232575
38,20,2.39184,0.000217079
39,20,2.42284,0.000202513
40,20,2.45389,0.000188812
41,20,2.48499,0.000175917
42,20,2.51611,0.000163769
43,20,2.54725,0.000152315
44,20,2.57838,0.000141501
45,20,2.60949,0.00013128
46,20,2.64056,0.000121604
47,20,2.67157,0.000112429
48,20,2.7025,0.000103715
49,20,2.73334,9.54217e-05
50,20,2.76406,8.75124e-05
51,20,2.79464,7.99518e-05
52,20,2.82507,7.27067e-05
53,20,2.85533,6.57454e-05
54,20,2.88539,5.90375e-05
55,20,2.91524,5.25541e-05
56,20,2.94485,4.62674e-05
57,20,2.97421,4.01506e-05
58,20,3.00329,3.4178e-05
59,20,3.03207,2.83242e-05
60,20,3.06053,2.2565e-05
61,20,3.08865,1.68764e-05
62,20,3.11641,1.12348e-05
63,20,3.14379,5.61702e-06
1,21,1.41034,0.000113338
2,21,1.43265,0.000225531
3,21,1.4553,0.000334991
4,21,1.47828,0.000439382
5,21,1.50159,0.000535556
6,21,1.52523,0.000619911
7,21,1.54918,0.000689483
8,21,1.57345,0.000743918
9,21,1.59804,0.000783706
10,21,1.62294,0.000809824
11,21,1.64815,0.000823853
12,21,1.67368,0.00082752
13,21,1.69951,0.000822463
14,21,1.72565,0.000810185
15,21,1.7521,0.000792063
16,21,1.77884,0.000769345
17,21,1.80588,0.000743146
18,21,1.83322,0.000714436
19,21,1.86084,0.000684048
20,21,1.88874,0.000652677
21,21,1.91692,0.000620896
22,21,1.94536,0.000589166
23,21,1.97407,0.000557849
24,21,2.00303,0.000527225
25,21,2.03224,0.000497502
26,21,2.06168,0.000468829
27,21,2.09135,0.000441307
28,21,2.12123,0.000414998
29,21,2.15132,0.000389932
30,21,2.18161,0.000366114
31,21,2.21209,0.000343532
32,21,2.24273,0.000322158
33,21,2.27354,0.000301955
34,21,2.30449,0.000282877
35,21,2.33558,0.000264875
36,21,2.36678,0.000247895
37,21,2.3981,0.000231884
38,21,2.4295,0.000216786
39,21,2.46099,0.000202547
40,21,2.49253,0.000189113
41,21,2.52412,0.000176431
42,21,2.55573,0.000164453
43,21,2.58736,0.000153128
44,21,2.61898,0.00014241
45,21,2.65058,0.000132256
46,21,2.68214,0.000122623
47,21,2.71364,0.00011347
48,21,2.74506,0.000104759
49,21,2.77638,9.64536e-05
50,21,2.80758,8.85192e-05
51,21,2.83865,8.09223e-05
52,21,2.86956,7.36314e-05
53,21,2.9003,6.6616e-05
54,21,2.93083,5.98473e-05
55,21,2.96115,5.32973e-05
56,21,2.99123,4.69391e-05
57,21,3.02105,4.07468e-05
58,21,3.05058,3.46951e-05
59,21,3.07982,2.87595e-05
60,21,3.10873,2.29161e-05
61,21,3.13729,1.71415e-05
62,21,3.16549,1.14125e-05
63,21,3.19329,5.7062e-06
1,22,1.43253,0.000100464
2,22,1.45518,0.00019956
3,22,1.47817,0.000295681
4,22,1.5015,0.000386858
5,22,1.52517,0.000470793
6,22,1.54916,0.000545147
7,22,1.57349,0.000608101
8,22,1.59813,0.000658963
9,22,1.62311,0.000697799
10,22,1.6484,0.0007252
11,22,1.67401,0.000742171
12,22,1.69994,0.000749918
13,22,1.72619,0.000749692
14,22,1.75275,0.000742709
15,22,1.77961,0.000730119
16,22,1.80678,0.000712989
17,22,1.83426,0.000692286
18,22,1.86203,0.000668872
19,22,1.89009,0.000643501
20,22,1.91844,0.000616816
21,22,1.94706,0.000589361
22,22,1.97596,0.000561584
23,22,2.00512,0.000533849
24,22,2.03454,0.000506448
25,22,2.06421,0.000479606
26,22,2.09412,0.000453494
27,22,2.12426,0.000428236
28,22,2.15462,0.00040392
29,22,2.18519,0.000380601
30,22,2.21595,0.000358309
31,22,2.24691,0.000337055
32,22,2.27804,0.000316832
33,22,2.30933,0.000297623
34,22,2.34077,0.000279402
35,22,2.37235,0.000262135
36,22,2.40405,0.000245783
37,22,2.43586,0.000230306
38,22,2.46776,0.00021566
39,22,2.49974,0.000201801
40,22,2.53178,0.000188684
41,22,2.56386,0.000176266
42,22,2.59598,0.000164503
43,22,2.6281,0.000153353
44,22,2.66023,0.000142775
45,22,2.69232,0.000132729
46,22,2.72438,0.000123177
47,22,2.75637,0.000114083
48,22,2.78828,0.00010541
49,22,2.8201,9.71263e-05
50,22,2.8518,8.91981e-05
51,22,2.88335,8.15948e-05
52,22,2.91475,7.42863e-05
53,22,2.94597,6.72441e-05
54,22,2.97699,6.04404e-05
55,22,3.00778,5.38484e-05
56,22,3.03833,4.74425e-05
57,22,3.06862,4.11974e-05
58,22,3.09862,3.50888e-05
59,22,3.12832,2.9093e-05
60,22,3.15768,2.31864e-05
61,22,3.1867,1.73464e-05
62,22,3.21534,1.15502e-05
63,22,3.24358,5.77545e-06
1,23,1.45508,8.8974e-05
2,23,1.47807,0.00017658
3,23,1.50141,0.000261332
4,23,1.5251,0.000341593
5,23,1.54912,0.000415631
6,23,1.57349,0.0004818
7,23,1.59819,0.00053883
8,23,1.62322,0.000586053
9,23,1.64858,0.000623348
10,23,1.67427,0.000651028
11,23,1.70029,0.000669735
12,23,1.72663,0.000680313
13,23,1.75329,0.000683701
14,23,1.78027,0.000680863
15,23,1.80757,0.00067274
16,23,1.83517,0.00066023
17,23,1.86308,0.000644163
18,23,1.8913,0.000625293
19,23,1.9198,0.000604294
20,23,1.9486,0.000581753
21,23,1.97768,0.000558174
22,23,2.00704,0.000533987
23,23,2.03667,0.000509545
24,23,2.06655,0.000485142
25,23,2.09669,0.000461009
26,23,2.12708,0.000437333
27,23,2.15769,0.000414253
28,23,2.18853,0.000391874
29,23,2.21958,0.000370272
30,23,2.25084,0.000349496
31,23,2.28228,0.000329574
32,23,2.3139,0.00031052
33,23,2.34569,0.000292333
34,23,2.37763,0.000275001
35,23,2.4097,0.000258506
36,23,2.4419,0.000242823
37,23,2.47421,0.000227923
38,23,2.50662,0.000213772
39,23,2.5391,0.000200337
40,23,2.57164,0.000187581
41,23,2.60424,0.000175469
42,23,2.63686,0.000163963
43,23,2.66949,0.000153028
44,23,2.70212,0.000142627
45,23,2.73472,0.000132726
46,23,2.76728,0.000123291
47,23,2.79978,0.000114289
48,23,2.83219,0.000105687
49,23,2.86451,9.74548e-05
50,23,2.8967,8.95622e-05
51,23,2.92876,8.19804e-05
52,23,2.96065,7.46812e-05
53,23,2.99236,6.76376e-05
54,23,3.02387,6.08235e-05
55,23,3.05515,5.42133e-05
56,23,3.08618,4.77824e-05
57,23,3.11694,4.15067e-05
58,23,3.14742,3.53627e-05
59,23,3.17758,2.93273e-05
60,23,3.20741,2.3378e-05
61,23,3.23688,1.74925e-05
62,23,3.26597,1.16488e-05
63,23,3.29466,5.82524e-06
1,24,1.47798,7.88668e-05
2,24,1.50133,0.000156469
3,24,1.52502,0.00023149
4,24,1.54907,0.000302569
5,24,1.57346,0.000368354
6,24,1.5982,0.000427613
7,24,1.62329,0.000479386
8,24,1.64871,0.000523091
9,24,1.67447,0.000558533
10,24,1.70056,0.000585851
11,24,1.72699,0.00060545
12,24,1.75375,0.00061792
13,24,1.78083,0.000623961
14,24,1.80824,0.000624325
15,24,1.83597,0.000619774
16,24,1.86401,0.000611053
17,24,1.89237,0.000598868
18,24,1.92103,0.000583871
19,24,1.94999,0.000566657
20,24,1.97924,0.000547754
21,24,2.00879,0.000527626
22,24,2.03861,0.000506672
23,24,2.06871,0.000485233
24,24,2.09907,0.000463593
25,24,2.12968,0.000441987
26,24,2.16055,0.000420605
27,24,2.19165,0.000399597
28,24,2.22298,0.000379082
29,24,2.25452,0.000359147
30,24,2.28627,0.000339857
31,24,2.31821,0.000321256
32,24,2.35033,0.000303371
33,24,2.38262,0.000286216
34,24,2.41506,0.000269792
35,24,2.44764,0.000254094
36,24,2.48035,0.000239108
37,24,2.51317,0.000224816
38,24,2.54608,0.000211195
39,24,2.57908,0.000198218
40,24,2.61214,0.000185859
41,24,2.64524,0.000174088
42,24,2.67838,0.000162874
43,24,2.71152,0.000152188
44,24,2.74466,0.000141999
45,24,2.77778,0.000132276
46,24,2.81085,0.000122989
47,24,2.84386,0.000114109
48,24,2.87679,0.000105608
49,24,2.90962,9.74555e-05
50,24,2.94232,8.96257e-05
51,24,2.97488,8.20914e-05
52,24,3.00727,7.48266e-05
53,24,3.03948,6.78059e-05
54,24,3.07148,6.10046e-05
55,24,3.10326,5.43987e-05
56,24,3.13478,4.79646e-05
57,24,3.16603,4.16794e-05
58,24,3.19698,3.55204e-05
59,24,3.22762,2.94656e-05
60,24,3.25792,2.34932e-05
61,24,3.28785,1.75817e-05
62,24,3.3174,1.17097e-05
63,24,3.34654,5.85616e-06
1,25,1.50125,7.00392e-05
2,25,1.52495,0.000138956
3,25,1.54901,0.000205607
4,25,1.57343,0.000268857
5,25,1.5982,0.000327621
6,25,1.62332,0.000380932
7,25,1.64879,0.000428029
8,25,1.67461,0.000468413
9,25,1.70077,0.000501863
10,25,1.72728,0.000528415
11,25,1.75412,0.000548318
12,25,1.7813,0.000561981
13,25,1.80881,0.000569923
14,25,1.83666,0.000572727
15,25,1.86482,0.000571005
16,25,1.89331,0.000565368
17,25,1.92212,0.000556411
18,25,1.95123,0.000544694
19,25,1.98065,0.000530737
20,25,2.01037,0.000515009
21,25,2.04038,0.000497931
22,25,2.07068,0.000479872
23,25,2.10125,0.00046115
24,25,2.13209,0.00044204
25,25,2.1632,0.00042277
26,25,2.19455,0.000403532
27,25,2.22614,0.00038448
28,25,2.25796,0.000365739
29,25,2.29001,0.000347407
30,25,2.32225,0.00032956
31,25,2.3547,0.000312252
32,25,2.38733,0.000295522
33,25,2.42012,0.000279396
34,25,2.45308,0.000263886
35,25,2.48618,0.000248998
36,25,2.5194,0.000234728
37,25,2.55274,0.000221066
38,25,2.58617,0.000207998
39,25,2.61969,0.000195508
40,25,2.65327,0.000183573
41,25,2.68689,0.000172172
42,25,2.72055,0.000161281
43,25,2.75422,0.000150873
44,25,2.78788,0.000140924
45,25,2.82152,0.000131408
46,25,2.85512,0.000122298
47,25,2.88865,0.000113568
48,25,2.92209,0.000105192
49,25,2.95543,9.71461e-05
50,25,2.98865,8.94039e-05
51,25,3.02172,8.19413e-05
52,25,3.05463,7.47342e-05
53,25,3.08735,6.77589e-05
54,25,3.11985,6.09924e-05
55,25,3.15213,5.4412e-05
56,25,3.18414,4.79953e-05
57,25,3.21589,4.17207e-05
58,25,3.24733,3.55665e-05
59,25,3.27845,2.95115e-05
60,25,3.30922,2.35349e-05
61,25,3.33963,1.7616e-05
62,25,3.36964,1.17341e-05
63,25,3.39924,5.86888e-06
1,26,1.52488,6.23499e-05
2,26,1.54895,0.000123724
3,26,1.57338,0.000183142
4,26,1.59817,0.00023965
5,26,1.62332,0.000292358
6,26,1.64884,0.000340485
7,26,1.6747,0.000383405
8,26,1.70092,0.000420689
9,26,1.7275,0.000452113
10,26,1.75442,0.000477651
11,26,1.78168,0.000497448
12,26,1.80929,0.000511786
13,26,1.83724,0.000521047
14,26,1.86552,0.000525681
15,26,1.89414,0.000526176
16,26,1.92308,0.00052303
17,26,1.95234,0.000516741
18,26,1.98191,0.000507786
19,26,2.0118,0.000496615
20,26,2.04199,0.000483643
21,26,2.07248,0.000469247
22,26,2.10325,0.000453763
23,26,2.13431,0.000437487
24,26,2.16564,0.000420677
25,26,2.19724,0.000403553
26,26,2.22908,0.000386303
27,26,2.26118,0.000369081
28,26,2.2935,0.000352017
29,26,2.32605,0.000335214
30,26,2.35881,0.000318753
31,26,2.39177,0.000302699
32,26,2.42491,0.0002871
33,26,2.45822,0.000271989
34,26,2.4917,0.000257389
35,26,2.52532,0.000243313
36,26,2.55907,0.000229767
37,26,2.59293,0.000216749
38,26,2.62689,0.000204252
39,26,2.66093,0.000192267
40,26,2.69504,0.000180779
41,26,2.7292,0.000169771
42,26,2.76339,0.000159226
43,26,2.79759,0.000149121
44,26,2.83178,0.000139437
45,26,2.86595,0.000130152
46,26,2.90007,0.000121243
47,26,2.93413,0.000112687
48,26,2.96811,0.000104462
49,26,3.00197,9.65448e-05
50,26,3.03571,8.8913e-05
51,26,3.06931,8.15442e-05
52,26,3.10273,7.44163e-05
53,26,3.13596,6.75075e-05
54,26,3.16898,6.07962e-05
55,26,3.20176,5.42611e-05
56,26,3.23429,4.78815e-05
57,26,3.26653,4.16364e-05
58,26,3.29847,3.55056e-05
59,26,3.33008,2.94689e-05
60,26,3.36133,2.35061e-05
61,26,3.39222,1.75976e-05
62,26,3.42271,1.17234e-05
63,26,3.45277,5.86412e-06
1,27,1.54888,5.56521e-05
2,27,1.57332,0.000110466
3,27,1.59813,0.000163603
4,27,1.62331,0.00021426
5,27,1.64885,0.000261697
6,27,1.67476,0.000305264
7,27,1.70103,0.000344439
8,27,1.72766,0.000378847
9,27,1.75465,0.000408272
10,27,1.78199,0.000432652
11,27,1.80969,0.000452061
12,27,1.83773,0.000466691
13,27,1.86612,0.000476823
14,27,1.89485,0.000482802
15,27,1.92392,0.000485012
16,27,1.95331,0.000483862
17,27,1.98304,0.000479764
18,27,2.01308,0.000473121
19,27,2.04344,0.000464322
20,27,2.07411,0.00045373
21,27,2.10508,0.00044168
22,27,2.13634,0.000428476
23,27,2.16789,0.000414388
24,27,2.19972,0.000399658
25,27,2.23181,0.000384494
26,27,2.26416,0.000369076
27,27,2.29676,0.000353557
28,27,2.3296,0.000338066
29,27,2.36266,0.000322708
30,27,2.39594,0.000307571
31,27,2.42942,0.000292723
32,27,2.46308,0.00027822
33,27,2.49692,0.000264101
34,27,2.53093,0.000250397
35,27,2.56508,0.000237127
36,27,2.59936,0.000224306
37,27,2.63375,0.000211938
38,27,2.66825,0.000200022
39,27,2.70283,0.000188556
40,27,2.73748,0.00017753
41,27,2.77217,0.000166933
42,27,2.8069,0.000156752
43,27,2.84164,0.000146971
44,27,2.87637,0.000137573
45,27,2.91108,0.00012854
46,27,2.94574,0.000119852
47,27,2.98034,0.000111492
48,27,3.01484,0.000103438
49,27,3.04925,9.56706e-05
50,27,3.08352,8.81696e-05
51,27,3.11764,8.09147e-05
52,27,3.15159,7.38858e-05
53,27,3.18535,6.70628e-05
54,27,3.21888,6.04256e-05
55,27,3.25218,5.39547e-05
56,27,3.28522,4.76302e-05
57,27,3.31797,4.14328e-05
58,27,3.35041,3.5343e-05
59,27,3.38252,2.93418e-05
60,27,3.41427,2.34101e-05
61,27,3.44564,1.75289e-05
62,27,3.47661,1.16794e-05
63,27,3.50715,5.84267e-06
1,28,1.57327,4.98085e-05
2,28,1.59809,9.89008e-05
3,28,1.62328,0.000146562
4,28,1.64885,0.000192111
5,28,1.67479,0.000234924
6,28,1.7011,0.000274455
7,28,1.72778,0.00031026
8,28,1.75483,0.000342009
9,28,1.78224,0.000369499
10,28,1.81001,0.000392645
11,28,1.83814,0.000411477
12,28,1.86662,0.00042612
13,28,1.89546,0.000436779
14,28,1.92464,0.000443716
15,28,1.95417,0.000447237
16,28,1.98403,0.000447671
17,28,2.01422,0.000445359
18,28,2.04474,0.000440642
19,28,2.07558,0.000433852
20,28,2.10674,0.000425306
21,28,2.1382,0.000415298
22,28,2.16995,0.000404102
23,28,2.202,0.000391963
24,28,2.23433,0.000379104
25,28,2.26693,0.00036572
26,28,2.2998,0.000351981
27,28,2.33291,0.000338037
28,28,2.36627,0.000324012
29,28,2.39985,0.000310014
30,28,2.43365,0.000296131
31,28,2.46766,0.000282435
32,28,2.50186,0.000268986
33,28,2.53623,0.000255829
34,28,2.57077,0.000242999
35,28,2.60546,0.000230524
36,28,2.64028,0.000218421
37,28,2.67522,0.000206702
38,28,2.71026,0.000195371
39,28,2.74539,0.000184431
40,28,2.78058,0.000173877
41,28,2.81582,0.000163704
42,28,2.8511,0.000153902
43,28,2.88638,0.00014446
44,28,2.92166,0.000135364
45,28,2.95692,0.0001266
46,28,2.99213,0.000118153
47,28,3.02727,0.000110006
48,28,3.06232,0.000102142
49,28,3.09726,9.45427e-05
50,28,3.13207,8.71908e-05
51,28,3.16673,8.0068e-05
52,28,3.20122,7.3156e-05
53,28,3.23551,6.64365e-05
54,28,3.26957,5.98911e-05
55,28,3.3034,5.35014e-05
56,28,3.33695,4.72492e-05
57,28,3.37022,4.11161e-05
58,28,3.40317,3.5084e-05
59,28,3.43578,2.91347e-05
60,28,3.46803,2.32502e-05
61,28,3.4999,1.74125e-05
62,28,3.53136,1.16035e-05
63,28,3.56238,5.80535e-06
1,29,1.59804,4.46974e-05
2,29,1.62324,8.87843e-05
3,29,1.64882,0.00013165
4,29,1.67479,0.000172716
5,29,1.70113,0.000211452
6,29,1.72786,0.000247393
7,29,1.75495,0.000280157
8,29,1.78242,0.000309454
9,29,1.81026,0.000335092
10,29,1.83847,0.000356977
11,29,1.86704,0.000375107
12,29,1.89598,0.000389559
13,29,1.92527,0.000400482
14,29,1.95491,0.000408074
15,29,1.9849,0.000412576
16,29,2.01523,0.000414253
17,29,2.0459,0.000413388
18,29,2.07691,0.000410265
19,29,2.10823,0.000405169
20,29,2.13988,0.000398372
21,29,2.17184,0.000390136
22,29,2.2041,0.0003807
23,29,2.23665,0.00037029
24,29,2.26949,0.000359107
25,29,2.30261,0.000347331
26,29,2.33599,0.000335125
27,29,2.36963,0.000322629
28,29,2.40351,0.000309964
29,29,2.43763,0.000297237
30,29,2.47196,0.000284534
31,29,2.5065,0.000271932
32,29,2.54124,0.00025949
33,29,2.57616,0.00024726
34,29,2.61124,0.000235279
35,29,2.64648,0.000223579
36,29,2.68185,0.000212183
37,29,2.71734,0.000201106
38,29,2.75293,0.000190358
39,29,2.78861,0.000179946
40,29,2.82436,0.00016987
41,29,2.86016,0.000160129
42,29,2.89599,0.000150716
43,29,2.93183,0.000141624
44,29,2.96767,0.000132844
45,29,3.00348,0.000124365
46,29,3.03924,0.000116173
47,29,3.07493,0.000108254
48,29,3.11054,0.000100595
49,29,3.14603,9.31804e-05
50,29,3.18139,8.59938e-05
51,29,3.2166,7.90193e-05
52,29,3.25163,7.22405e-05
53,29,3.28646,6.56406e-05
54,29,3.32106,5.92029e-05
55,29,3.35541,5.29104e-05
56,29,3.3895,4.67462e-05
57,29,3.42329,4.06931e-05
58,29,3.45676,3.47341e-05
59,29,3.48989,2.88521e-05
60,29,3.52265,2.30301e-05
61,29,3.55501,1.7251e-05
62,29,3.58697,1.14977e-05
63,29,3.61848,5.75305e-06
1,30,1.6232,4.02132e-05
2,30,1.64879,7.99062e-05
3,30,1.67477,0.000118557
4,30,1.70114,0.00015567
5,30,1.7279,0.000190794
6,30,1.75504,0.000223529
7,30,1.78256,0.000253543
8,30,1.81046,0.00028058
9,30,1.83873,0.000304462
10,30,1.86739,0.000325089
11,30,1.89641,0.000342438
12,30,1.92579,0.000356554
13,30,1.95555,0.000367541
14,30,1.98565,0.000375549
15,30,2.01612,0.000380766
16,30,2.04693,0.000383407
17,30,2.07809,0.000383702
18,30,2.10958,0.000381892
19,30,2.1414,0.000378216
20,30,2.17355,0.00037291
21,30,2.20601,0.000366202
22,30,2.23878,0.000358306
23,30,2.27185,0.000349422
24,30,2.30521,0.000339733
25,30,2.33885,0.000329406
26,30,2.37275,0.000318592
27,30,2.40692,0.000307421
28,30,2.44134,0.000296012
29,30,2.47599,0.000284467
30,30,2.51087,0.000272871
31,30,2.54596,0.0002613
32,30,2.58125,0.000249817
33,30,2.61672,0.000238472
34,30,2.65235,0.000227309
35,30,2.68814,0.000216361
36,30,2.72407,0.000205654
37,30,2.76012,0.000195209
38,30,2.79628,0.000185039
39,30,2.83252,0.000175153
40,30,2.86883,0.000165556
41,30,2.90519,0.00015625
42,30,2.94159,0.000147233
43,30,2.978,0.000138501
44,30,3.0144,0.000130046
45,30,3.05077,0.000121861
46,30,3.0871,0.000113936
47,30,3.12335,0.00010626
48,30,3.15952,9.88197e-05
49,30,3.19557,9.16029e-05
50,30,3.23149,8.45957e-05
51,30,3.26725,7.77839e-05
52,30,3.30283,7.11527e-05
53,30,3.33821,6.46871e-05
54,30,3.37336,5.83717e-05
55,30,3.40825,5.2191e-05
56,30,3.44288,4.61292e-05
57,30,3.4772,4.01705e-05
58,30,3.51119,3.4299e-05
59,30,3.54484,2.84987e-05
60,30,3.57812,2.27535e-05
61,30,3.611,1.70471e-05
62,30,3.64345,1.13636e-05
63,30,3.67546,5.68664e-06
1,31,1.64876,3.62658e-05
2,31,1.67475,7.20882e-05
3,31,1.70114,0.000107019
4,31,1.72792,0.000140635
5,31,1.75509,0.000172545
6,31,1.78265,0.000202406
7,31,1.8106,0.000229929
8,31,1.83894,0.000254885
9,31,1.86766,0.000277109
10,31,1.89676,0.000296502
11,31,1.92624,0.000313027
12,31,1.95609,0.000326705
13,31,1.9863,0.000337605
14,31,2.01689,0.000345842
15,31,2.04783,0.000351561
16,31,2.07913,0.000354935
17,31,2.11078,0.000356152
18,31,2.14277,0.000355414
19,31,2.17509,0.000352923
20,31,2.20774,0.000348882
21,31,2.24072,0.000343488
22,31,2.27401,0.000336932
23,31,2.3076,0.000329391
24,31,2.34148,0.00032103
25,31,2.37565,0.000312003
26,31,2.4101,0.000302446
27,31,2.44481,0.000292485
28,31,2.47977,0.000282231
29,31,2.51497,0.000271779
30,31,2.5504,0.000261216
31,31,2.58604,0.000250614
32,31,2.62188,0.000240036
33,31,2.65791,0.000229536
34,31,2.69411,0.000219156
35,31,2.73047,0.000208933
36,31,2.76696,0.000198896
37,31,2.80358,0.000189067
38,31,2.8403,0.000179463
39,31,2.87712,0.000170098
40,31,2.914,0.000160978
41,31,2.95094,0.000152108
42,31,2.98791,0.00014349
43,31,3.02489,0.000135122
44,31,3.06186,0.000127
45,31,3.09881,0.000119119
46,31,3.13571,0.00011147
47,31,3.17254,0.000104046
48,31,3.20927,9.68359e-05
49,31,3.24589,8.9829e-05
50,31,3.28238,8.30136e-05
51,31,3.3187,7.6377e-05
52,31,3.35484,6.99063e-05
53,31,3.39077,6.35879e-05
54,31,3.42648,5.7408e-05
55,31,3.46192,5.13522e-05
56,31,3.49709,4.54062e-05
57,31,3.53195,3.95553e-05
58,31,3.56649,3.37846e-05
59,31,3.60067,2.80792e-05
60,31,3.63447,2.24239e-05
61,31,3.66786,1.68036e-05
62,31,3.70083,1.12031e-05
63,31,3.73334,5.60704e-06
1,32,1.67472,3.2779e-05
2,32,1.70111,6.51793e-05
3,32,1.72791,9.68158e-05
4,32,1.75511,0.000127323
5,32,1.78271,0.000156365
6,32,1.8107,0.000183644
7,32,1.83909,0.000208905
8,32,1.86787,0.000231944
9,32,1.89704,0.000252611
10,32,1.9266,0.000270808
11,32,1.95654,0.00028649
12,32,1.98686,0.000299659
13,32,2.01755,0.000310361
14,32,2.04862,0.00031868
15,32,2.08005,0.00032473
16,32,2.11184,0.000328648
17,32,2.14399,0.000330589
18,32,2.17648,0.000330719
19,32,2.20931,0.00032921
20,32,2.24248,0.000326237
21,32,2.27598,0.00032197
22,32,2.30979,0.000316575
23,32,2.34391,0.000310211
24,32,2.37833,0.000303027
25,32,2.41304,0.000295161
26,32,2.44803,0.000286739
27,32,2.48329,0.000277877
28,32,2.5188,0.000268679
29,32,2.55456,0.000259237
30,32,2.59054,0.000249633
31,32,2.62675,0.000239937
32,32,2.66316,0.000230212
33,32,2.69975,0.000220511
34,32,2.73652,0.000210878
35,32,2.77345,0.00020135
36,32,2.81052,0.000191959
37,32,2.84772,0.000182729
38,32,2.88502,0.00017368
39,32,2.92242,0.000164826
40,32,2.95988,0.000156177
41,32,2.9974,0.000147742
42,32,3.03495,0.000139523
43,32,3.07252,0.000131521
44,32,3.11008,0.000123736
45,32,3.1476,0.000116164
46,32,3.18508,0.000108799
47,32,3.22249,0.000101635
48,32,3.25981,9.46643e-05
49,32,3.297,8.78772e-05
50,32,3.33406,8.12639e-05
51,32,3.37096,7.48135e-05
52,32,3.40767,6.85146e-05
53,32,3.44417,6.2355e-05
54,32,3.48043,5.63223e-05
55,32,3.51644,5.04034e-05
56,32,3.55216,4.45852e-05
57,32,3.58757,3.88542e-05
58,32,3.62265,3.31965e-05
59,32,3.65737,2.75982e-05
60,32,3.6917,2.20452e-05
61,32,3.72562,1.65233e-05
62,32,3.75911,1.10181e-05
63,32,3.79213,5.51515e-06
1,33,1.70109,2.96882e-05
2,33,1.7279,5.90525e-05
3,33,1.75511,8.77606e-05
4,33,1.78274,0.000115497
5,33,1.81076,0.00014197
6,33,1.8392,0.000166921
7,33,1.86803,0.000190124
8,33,1.89726,0.000211399
9,33,1.92689,0.000230608
10,33,1.95691,0.000247655
11,33,1.98732,0.000262491
12,33,2.01812,0.000275106
13,33,2.04929,0.000285528
14,33,2.08085,0.000293817
15,33,2.11277,0.00030006
16,33,2.14507,0.000304368
17,33,2.17772,0.000306866
18,33,2.21073,0.000307693
19,33,2.24408,0.000306994
20,33,2.27777,0.000304917
21,33,2.31179,0.000301611
22,33,2.34614,0.000297221
23,33,2.3808,0.000291886
24,33,2.41576,0.00028574
25,33,2.45102,0.000278908
26,33,2.48656,0.000271506
27,33,2.52238,0.00026364
28,33,2.55845,0.000255406
29,33,2.59477,0.000246891
30,33,2.63132,0.000238174
31,33,2.6681,0.000229323
32,33,2.70508,0.000220398
33,33,2.74226,0.000211451
34,33,2.77961,0.000202527
35,33,2.81712,0.000193664
36,33,2.85477,0.000184894
37,33,2.89256,0.000176242
38,33,2.93045,0.000167731
39,33,2.96843,0.000159377
40,33,3.00649,0.000151191
41,33,3.0446,0.000143185
42,33,3.08274,0.000135363
43,33,3.1209,0.000127728
44,33,3.15905,0.000120282
45,33,3.19717,0.000113022
46,33,3.23524,0.000105946
47,33,3.27323,9.90491e-05
48,33,3.31114,9.23246e-05
49,33,3.34892,8.57654e-05
50,33,3.38656,7.9363e-05
51,33,3.42404,7.3108e-05
52,33,3.46133,6.69906e-05
53,33,3.4984,6.1e-05
54,33,3.53524,5.51249e-05
55,33,3.57181,4.93536e-05
56,33,3.6081,4.36742e-05
57,33,3.64407,3.8074e-05
58,33,3.6797,3.25404e-05
59,33,3.71496,2.70605e-05
60,33,3.74984,2.16211e-05
61,33,3.78429,1.62088e-05
62,33,3.8183,1.08103e-05
63,33,3.85185,5.41189e-06
1,34,1.72787,2.69389e-05
2,34,1.7551,5.36002e-05
3,34,1.78274,7.96965e-05
4,34,1.8108,0.000104954
5,34,1.83926,0.00012912
6,34,1.86814,0.000151966
7,34,1.89743,0.000173295
8,34,1.92712,0.000192946
9,34,1.95721,0.00021079
10,34,1.9877,0.000226739
11,34,2.01859,0.000240739
12,34,2.04987,0.000252773
13,34,2.08154,0.000262855
14,34,2.11359,0.000271027
15,34,2.14602,0.000277355
16,34,2.17882,0.000281928
17,34,2.21199,0.000284846
18,34,2.24551,0.000286226
19,34,2.27939,0.000286188
20,34,2.31362,0.00028486
21,34,2.34818,0.00028237
22,34,2.38306,0.000278844
23,34,2.41827,0.000274406
24,34,2.45379,0.000269174
25,34,2.4896,0.000263261
26,34,2.5257,0.000256772
27,34,2.56208,0.000249804
28,34,2.59872,0.000242448
29,34,2.63561,0.000234783
30,34,2.67275,0.000226885
31,34,2.7101,0.000218818
32,34,2.74767,0.00021064
33,34,2.78543,0.000202402
34,34,2.82337,0.000194148
35,34,2.86147,0.000185917
36,34,2.89972,0.000177741
37,34,2.9381,0.000169646
38,34,2.97659,0.000161656
39,34,3.01517,0.000153787
40,34,3.05383,0.000146056
41,34,3.09254,0.000138471
42,34,3.13128,0.000131041
43,34,3.17004,0.000123771
44,34,3.20879,0.000116663
45,34,3.24751,0.000109718
46,34,3.28618,0.000102934
47,34,3.32478,9.63082e-05
48,34,3.36328,8.98356e-05
49,34,3.40166,8.35106e-05
50,34,3.43989,7.73262e-05
51,34,3.47796,7.12746e-05
52,34,3.51584,6.53471e-05
53,34,3.55349,5.95342e-05
54,34,3.59091,5.3826e-05
55,34,3.62806,4.82118e-05
56,34,3.66492,4.26808e-05
57,34,3.70145,3.72214e-05
58,34,3.73764,3.18221e-05
59,34,3.77346,2.64708e-05
60,34,3.80889,2.11552e-05
61,34,3.84388,1.5863e-05
62,34,3.87843,1.05816e-05
63,34,3.9125,5.29815e-06
1,35,1.75508,2.4485e-05
2,35,1.78273,4.87317e-05
3,35,1.81081,7.24907e-05
4,35,1.8393,9.5524e-05
5,35,1.86822,0.00011761
6,35,1.89754,0.00013855
7,35,1.92729,0.000158169
8,35,1.95744,0.000176322
9,35,1.98801,0.000192892
10,35,2.01898,0.000207796
11,35,2.05035,0.000220981
12,35,2.08213,0.000232421
13,35,2.11429,0.000242121
14,35,2.14685,0.00025011
15,35,2.17979,0.000256437
16,35,2.21311,0.000261172
17,35,2.2468,0.000264397
18,35,2.28085,0.000266207
19,35,2.31526,0.000266705
20,35,2.35003,0.000265998
21,35,2.38513,0.000264198
22,35,2.42057,0.000261413
23,35,2.45633,0.000257753
24,35,2.49241,0.000253323
25,35,2.52879,0.000248224
26,35,2.56546,0.000242551
27,35,2.60241,0.000236393
28,35,2.63963,0.000229832
29,35,2.6771,0.000222945
30,35,2.71482,0.000215799
31,35,2.75277,0.000208458
32,35,2.79092,0.000200976
33,35,2.82928,0.000193402
34,35,2.86782,0.000185781
35,35,2.90652,0.000178149
36,35,2.94537,0.000170538
37,35,2.98436,0.000162977
38,35,3.02345,0.000155489
39,35,3.06264,0.000148092
40,35,3.10191,0.000140801
41,35,3.14123,0.00013363
42,35,3.18058,0.000126586
43,35,3.21995,0.000119677
44,35,3.25931,0.000112906
45,35,3.29865,0.000106275
46,35,3.33792,9.97843e-05
47,35,3.37713,9.34321e-05
48,35,3.41624,8.72153e-05
49,35,3.45522,8.11294e-05
50,35,3.49406,7.51687e-05
51,35,3.53273,6.93269e-05
52,35,3.5712,6.35962e-05
53,35,3.60945,5.79687e-05
54,35,3.64746,5.24352e-05
55,35,3.68519,4.69865e-05
56,35,3.72263,4.16126e-05
57,35,3.75974,3.6303e-05
58,35,3.7965,3.1047e-05
59,35,3.83289,2.58335e-05
60,35,3.86887,2.06512e-05
61,35,3.90442,1.54885e-05
62,35,3.93951,1.03337e-05
63,35,3.97412,5.17483e-06
1,36,1.78271,2.22874e-05
2,36,1.8108,4.437e-05
3,36,1.83932,6.60306e-05
4,36,1.86826,8.70616e-05
5,36,1.89762,0.000107269
6,36,1.92741,0.000126478
7,36,1.95762,0.000144534
8,36,1.98825,0.000161305
9,36,2.0193,0.000176687
10,36,2.05075,0.000190601
11,36,2.08262,0.000202993
12,36,2.11489,0.000213837
13,36,2.14757,0.000223127
14,36,2.18063,0.000230884
15,36,2.21409,0.000237142
16,36,2.24793,0.000241957
17,36,2.28215,0.000245394
18,36,2.31675,0.000247533
19,36,2.3517,0.000248459
20,36,2.38701,0.000248265
21,36,2.42267,0.000247044
22,36,2.45867,0.000244892
23,36,2.49499,0.000241905
24,36,2.53164,0.000238177
25,36,2.56859,0.000233797
26,36,2.60584,0.000228851
27,36,2.64337,0.00022342
28,36,2.68118,0.00021758
29,36,2.71925,0.0002114
30,36,2.75756,0.000204945
31,36,2.7961,0.000198274
32,36,2.83486,0.000191438
33,36,2.87382,0.000184486
34,36,2.91297,0.000177458
35,36,2.95228,0.000170392
36,36,2.99175,0.00016332
37,36,3.03134,0.000156269
38,36,3.07106,0.000149262
39,36,3.11086,0.000142319
40,36,3.15075,0.000135457
41,36,3.19069,0.000128688
42,36,3.23066,0.000122023
43,36,3.27065,0.000115469
44,36,3.31064,0.000109032
45,36,3.35059,0.000102713
46,36,3.39048,9.65161e-05
47,36,3.43031,9.0439e-05
48,36,3.47003,8.44805e-05
49,36,3.50963,7.86371e-05
50,36,3.54908,7.29047e-05
51,36,3.58836,6.72777e-05
52,36,3.62743,6.17498e-05
53,36,3.66629,5.63139e-05
54,36,3.70489,5.09622e-05
55,36,3.74322,4.56862e-05
56,36,3.78125,4.04769e-05
57,36,3.81895,3.5325e-05
58,36,3.85629,3.02204e-05
59,36,3.89324,2.51531e-05
60,36,3.92979,2.01125e-05
61,36,3.9659,1.50879e-05
62,36,4.00155,1.00683e-05
63,36,4.0367,5.04278e-06
1,37,1.81079,2.03129e-05
2,37,1.83931,4.04497e-05
3,37,1.86827,6.02205e-05
4,37,1.89767,7.94438e-05
5,37,1.9275,9.79495e-05
6,37,1.95775,0.000115583
7,37,1.98844,0.000132206
8,37,2.01955,0.000147703
9,37,2.05108,0.000161976
10,37,2.08303,0.000174953
11,37,2.1154,0.000186582
12,37,2.14818,0.000196834
13,37,2.18136,0.000205698
14,37,2.21495,0.000213185
15,37,2.24894,0.000219322
16,37,2.28331,0.00022415
17,37,2.31807,0.000227723
18,37,2.35321,0.000230105
19,37,2.38871,0.000231369
20,37,2.42458,0.000231591
21,37,2.4608,0.000230854
22,37,2.49737,0.000229241
23,37,2.53427,0.000226835
24,37,2.57149,0.000223718
25,37,2.60902,0.000219972
26,37,2.64686,0.000215672
27,37,2.68499,0.000210892
28,37,2.72339,0.000205703
29,37,2.76205,0.000200167
30,37,2.80097,0.000194344
31,37,2.84012,0.00018829
32,37,2.87949,0.000182053
33,37,2.91907,0.00017568
34,37,2.95883,0.000169209
35,37,2.99876,0.000162676
36,37,3.03885,0.000156114
37,37,3.07907,0.000149548
38,37,3.11941,0.000143002
39,37,3.15985,0.000136497
40,37,3.20036,0.000130049
41,37,3.24093,0.000123672
42,37,3.28153,0.000117377
43,37,3.32215,0.000111171
44,37,3.36276,0.000105062
45,37,3.40335,9.90537e-05
46,37,3.44387,9.31481e-05
47,37,3.48432,8.73462e-05
48,37,3.52467,8.16471e-05
49,37,3.56489,7.60486e-05
50,37,3.60497,7.05475e-05
51,37,3.64486,6.51394e-05
52,37,3.68456,5.98189e-05
53,37,3.72402,5.458e-05
54,37,3.76324,4.94158e-05
55,37,3.80217,4.43188e-05
56,37,3.84079,3.92809e-05
57,37,3.87908,3.42934e-05
58,37,3.91701,2.93475e-05
59,37,3.95455,2.44338e-05
60,37,3.99168,1.95425e-05
61,37,4.02835,1.46637e-05
62,37,4.06456,9.78723e-06
63,37,4.10027,4.90283e-06
1,38,1.8393,1.85332e-05
2,38,1.86827,3.69148e-05
3,38,1.89769,5.49786e-05
4,38,1.92754,7.25651e-05
5,38,1.95784,8.95246e-05
6,38,1.98857,0.00010572
7,38,2.01974,0.00012103
8,38,2.05133,0.000135348
9,38,2.08336,0.000148588
10,38,2.11582,0.000160681
11,38,2.14869,0.000171577
12,38,2.18199,0.000181247
13,38,2.2157,0.000189676
14,38,2.24981,0.000196868
15,38,2.28433,0.000202842
16,38,2.31925,0.00020763
17,38,2.35456,0.000211275
18,38,2.39025,0.000213829
19,38,2.42631,0.000215353
20,38,2.46274,0.000215912
21,38,2.49954,0.000215577
22,38,2.53668,0.000214419
23,38,2.57416,0.000212511
24,38,2.61197,0.000209926
25,38,2.65009,0.000206736
26,38,2.68853,0.000203009
27,38,2.72725,0.000198813
28,38,2.76626,0.000194209
29,38,2.80554,0.000189257
30,38,2.84507,0.000184012
31,38,2.88483,0.000178524
32,38,2.92482,0.000172842
33,38,2.96502,0.000167007
34,38,3.00541,0.000161056
35,38,3.04598,0.000155025
36,38,3.08669,0.000148944
37,38,3.12755,0.00014284
38,38,3.16853,0.000136735
39,38,3.2096,0.00013065
40,38,3.25075,0.000124601
41,38,3.29196,0.000118603
42,38,3.3332,0.000112667
43,38,3.37446,0.000106803
44,38,3.41571,0.000101016
45,38,3.45693,9.53137e-05
46,38,3.4981,8.96975e-05
47,38,3.53919,8.41696e-05
48,38,3.58017,7.873e-05
49,38,3.62103,7.33775e-05
50,38,3.66173,6.81099e-05
51,38,3.70226,6.29236e-05
52,38,3.74258,5.78142e-05
53,38,3.78266,5.27766e-05
54,38,3.8225,4.78047e-05
55,38,3.86204,4.2892e-05
56,38,3.90127,3.80311e-05
57,38,3.94017,3.32142e-05
58,38,3.97869,2.84333e-05
59,38,4.01683,2.36797e-05
60,38,4.05453,1.89444e-05
61,38,4.09179,1.42183e-05
62,38,4.12857,9.49199e-06
63,38,4.16484,4.75579e-06
1,39,1.86826,1.69242e-05
2,39,1.89769,3.37178e-05
3,39,1.92757,5.02349e-05
4,39,1.95789,6.63352e-05
5,39,1.98866,8.18866e-05
6,39,2.01988,9.67678e-05
7,39,2.05153,0.00011087
8,39,2.08363,0.000124098
9,39,2.11616,0.000136374
10,39,2.14912,0.000147633
11,39,2.18251,0.000157828
12,39,2.21633,0.000166929
13,39,2.25057,0.00017492
14,39,2.28522,0.0001818
15,39,2.32029,0.00018758
16,39,2.35575,0.000192286
17,39,2.39162,0.00019595
18,39,2.42787,0.000198617
19,39,2.4645,0.000200336
20,39,2.50151,0.000201163
21,39,2.53888,0.000201158
22,39,2.57661,0.000200383
23,39,2.61468,0.000198901
24,39,2.65308,0.000196777
25,39,2.69181,0.000194074
26,39,2.73085,0.000190854
27,39,2.77019,0.000187177
28,39,2.80981,0.0001831
29,39,2.8497,0.000178677
30,39,2.88986,0.000173958
31,39,2.93025,0.000168992
32,39,2.97087,0.00016382
33,39,3.0117,0.000158485
34,39,3.05273,0.00015302
35,39,3.09393,0.00014746
36,39,3.13529,0.000141833
37,39,3.17679,0.000136166
38,39,3.21841,0.000130481
39,39,3.26013,0.000124797
40,39,3.30193,0.000119133
41,39,3.34379,0.000113501
42,39,3.38569,0.000107914
43,39,3.4276,0.000102382
44,39,3.4695,9.69123e-05
45,39,3.51137,9.15102e-05
46,39,3.55318,8.618e-05
47,39,3.59492,8.09239e-05
48,39,3.63655,7.5743e-05
49,39,3.67805,7.06367e-05
50,39,3.71939,6.56036e-05
51,39,3.76055,6.06411e-05
52,39,3.80151,5.57456e-05
53,39,3.84223,5.09126e-05
54,39,3.88269,4.6137e-05
55,39,3.92286,4.14129e-05
56,39,3.96271,3.67339e-05
57,39,4.00222,3.20929e-05
58,39,4.04135,2.74824e-05
59,39,4.08008,2.28947e-05
60,39,4.11838,1.83214e-05
61,39,4.15623,1.37541e-05
62,39,4.19358,9.18412e-06
63,39,4.23043,4.60242e-06
1,40,1.89768,1.5465e-05
2,40,1.92757,3.08176e-05
3,40,1.95792,4.59294e-05
4,40,1.98872,6.06765e-05
5,40,2.01997,7.49422e-05
6,40,2.05167,8.86187e-05
7,40,2.08383,0.000101609
8,40,2.11643,0.000113828
9,40,2.14947,0.000125203
10,40,2.18295,0.000135676
11,40,2.21687,0.000145202
12,40,2.25122,0.000153752
13,40,2.286,0.000161307
14,40,2.32119,0.000167863
15,40,2.35681,0.000173426
16,40,2.39283,0.000178016
17,40,2.42926,0.000181658
18,40,2.46608,0.000184388
19,40,2.50329,0.000186247
20,40,2.54088,0.000187282
21,40,2.57884,0.000187545
22,40,2.61716,0.000187089
23,40,2.65584,0.00018597
24,40,2.69485,0.000184244
25,40,2.73418,0.000181967
26,40,2.77384,0.000179195
27,40,2.8138,0.00017598
28,40,2.85404,0.000172376
29,40,2.89457,0.000168431
30,40,2.93535,0.000164191
31,40,2.97638,0.000159701
32,40,3.01765,0.000155001
33,40,3.05912,0.000150128
34,40,3.10079,0.000145116
35,40,3.14265,0.000139997
36,40,3.18466,0.000134798
37,40,3.22681,0.000129544
38,40,3.26909,0.000124258
39,40,3.31147,0.000118958
40,40,3.35392,0.000113662
41,40,3.39644,0.000108384
42,40,3.439,0.000103135
43,40,3.48157,9.79264e-05
44,40,3.52413,9.27654e-05
45,40,3.56666,8.76584e-05
46,40,3.60913,8.26099e-05
47,40,3.65152,7.76228e-05
48,40,3.69381,7.26987e-05
49,40,3.73596,6.7838e-05
50,40,3.77796,6.30398e-05
51,40,3.81977,5.83022e-05
52,40,3.86137,5.36223e-05
53,40,3.90273,4.89965e-05
54,40,3.94383,4.44203e-05
55,40,3.98463,3.98885e-05
56,40,4.02511,3.53954e-05
57,40,4.06524,3.09346e-05
58,40,4.10499,2.64993e-05
59,40,4.14433,2.20825e-05
60,40,4.18324,1.76764e-05
61,40,4.22168,1.32733e-05
62,40,4.25962,8.86509e-06
63,40,4.29704,4.44346e-06
1,41,1.92756,1.41378e-05
2,41,1.95792,2.81789e-05
3,41,1.98875,4.20101e-05
4,41,2.02003,5.55218e-05
5,41,2.05177,6.86106e-05
6,41,2.08397,8.11806e-05
7,41,2.11663,9.3145e-05
8,41,2.14974,0.000104427
9,41,2.1833,0.000114961
10,41,2.21731,0.000124694
11,41,2.25176,0.000133584
12,41,2.28666,0.000141599
13,41,2.32198,0.000148724
14,41,2.35773,0.00015495
15,41,2.39391,0.00016028
16,41,2.4305,0.000164727
17,41,2.4675,0.000168312
18,41,2.5049,0.000171064
19,41,2.5427,0.000173017
20,41,2.58088,0.00017421
21,41,2.61944,0.000174688
22,41,2.65836,0.000174497
23,41,2.69764,0.000173684
24,41,2.73727,0.0001723
25,41,2.77723,0.000170394
26,41,2.81751,0.000168015
27,41,2.85809,0.000165212
28,41,2.89897,0.000162031
29,41,2.94014,0.000158518
30,41,2.98157,0.000154713
31,41,3.02324,0.000150659
32,41,3.06516,0.000146392
33,41,3.10729,0.000141948
34,41,3.14961,0.000137357
35,41,3.19213,0.00013265
36,41,3.2348,0.000127853
37,41,3.27762,0.00012299
38,41,3.32056,0.000118082
39,41,3.36361,0.000113149
40,41,3.40673,0.000108205
41,41,3.44992,0.000103267
42,41,3.49315,9.83451e-05
43,41,3.53639,9.34501e-05
44,41,3.57962,8.85902e-05
45,41,3.62282,8.37719e-05
46,41,3.66596,7.90002e-05
47,41,3.70902,7.42785e-05
48,41,3.75197,6.96089e-05
49,41,3.79479,6.49923e-05
50,41,3.83745,6.04285e-05
51,41,3.87992,5.59162e-05
52,41,3.92218,5.14531e-05
53,41,3.96419,4.70362e-05
54,41,4.00593,4.26617e-05
55,41,4.04738,3.83251e-05
56,41,4.08849,3.40212e-05
57,41,4.12926,2.97443e-05
58,41,4.16963,2.54882e-05
59,41,4.20959,2.12465e-05
60,41,4.24911,1.70122e-05
61,41,4.28816,1.27779e-05
62,41,4.3267,8.53628e-06
63,41,4.36471,4.27959e-06
1,42,1.95792,1.29271e-05
2,42,1.98875,2.57712e-05
3,42,2.02006,3.84321e-05
4,42,2.05183,5.08129e-05
5,42,2.08408,6.28218e-05
6,42,2.11678,7.43732e-05
7,42,2.14995,8.53894e-05
8,42,2.18359,9.58015e-05
9,42,2.21768,0.00010555
10,42,2.25222,0.000114585
11,42,2.28721,0.000122868
12,42,2.32265,0.00013037
13,42,2.35853,0.000137071
14,42,2.39485,0.000142965
15,42,2.43159,0.000148049
16,42,2.46876,0.000152334
17,42,2.50634,0.000155835
18,42,2.54433,0.000158575
19,42,2.58273,0.000160582
20,42,2.62151,0.000161891
21,42,2.66067,0.000162538
22,42,2.70021,0.000162563
23,42,2.74011,0.000162008
24,42,2.78036,0.000160916
25,42,2.82095,0.000159332
26,42,2.86186,0.000157299
27,42,2.90309,0.000154861
28,42,2.94461,0.000152059
29,42,2.98643,0.000148934
30,42,3.02851,0.000145525
31,42,3.07084,0.000141869
32,42,3.11341,0.000138
33,42,3.15621,0.000133951
34,42,3.1992,0.000129752
35,42,3.24239,0.00012543
36,42,3.28573,0.00012101
37,42,3.32923,0.000116516
38,42,3.37284,0.000111967
39,42,3.41657,0.000107382
40,42,3.46038,0.000102776
41,42,3.50424,9.8164e-05
42,42,3.54815,9.35574e-05
43,42,3.59207,8.89665e-05
44,42,3.63599,8.43994e-05
45,42,3.67987,7.98631e-05
46,42,3.72369,7.53628e-05
47,42,3.76743,7.09023e-05
48,42,3.81106,6.64841e-05
49,42,3.85455,6.21096e-05
50,42,3.89788,5.77791e-05
51,42,3.94102,5.34917e-05
52,42,3.98394,4.92459e-05
53,42,4.02661,4.5039e-05
54,42,4.06901,4.08679e-05
55,42,4.11111,3.67286e-05
56,42,4.15288,3.26165e-05
57,42,4.19428,2.85265e-05
58,42,4.23529,2.4453e-05
59,42,4.27588,2.03901e-05
60,42,4.31603,1.63313e-05
61,42,4.35569,1.22699e-05
62,42,4.39484,8.19899e-06
63,42,4.43345,4.11146e-06
1,43,1.98875,1.18194e-05
2,43,2.02007,2.35679e-05
3,43,2.05187,3.51566e-05
4,43,2.08414,4.64995e-05
5,43,2.11689,5.75148e-05
6,43,2.15011,6.81264e-05
7,43,2.1838,7.82645e-05
8,43,2.21796,8.7867e-05
9,43,2.25259,9.68798e-05
10,43,2.28767,0.000105258
11,43,2.32322,0.000112964
12,43,2.35922,0.000119971
13,43,2.39566,0.00012626
14,43,2.43255,0.000131821
15,43,2.46987,0.000136653
16,43,2.50762,0.000140759
17,43,2.5458,0.000144154
18,43,2.58439,0.000146854
19,43,2.62338,0.000148884
20,43,2.66278,0.000150271
21,43,2.70256,0.000151048
22,43,2.74272,0.000151247
23,43,2.78325,0.000150907
24,43,2.82413,0.000150065
25,43,2.86536,0.000148759
26,43,2.90692,0.000147029
27,43,2.94879,0.000144913
28,43,2.99097,0.000142449
29,43,3.03344,0.000139674
30,43,3.07619,0.000136623
31,43,3.11919,0.00013333
32,43,3.16243,0.000129827
33,43,3.2059,0.000126144
34,43,3.24957,0.000122308
35,43,3.29344,0.000118345
36,43,3.33747,0.000114279
37,43,3.38164,0.000110132
38,43,3.42595,0.000105923
39,43,3.47036,0.000101669
40,43,3.51486,9.73859e-05
41,43,3.55942,9.30869e-05
42,43,3.60402,8.8784e-05
43,43,3.64863,8.4487e-05
44,43,3.69324,8.02044e-05
45,43,3.73781,7.5943e-05
46,43,3.78232,7.17083e-05
47,43,3.82675,6.75043e-05
48,43,3.87107,6.3334e-05
49,43,3.91524,5.9199e-05
50,43,3.95926,5.51e-05
51,43,4.00308,5.10367e-05
52,43,4.04667,4.70079e-05
53,43,4.09002,4.30116e-05
54,43,4.13309,3.90449e-05
55,43,4.17585,3.51045e-05
56,43,4.21827,3.11862e-05
57,43,4.26033,2.72856e-05
58,43,4.30199,2.33974e-05
59,43,4.34322,1.95162e-05
60,43,4.38399,1.56361e-05
61,43,4.42428,1.1751e-05
62,43,4.46404,7.85441e-06
63,43,4.50326,3.93966e-06
1,44,2.02007,1.08032e-05
2,44,2.05188,2.15461e-05
3,44,2.08418,3.21495e-05
4,44,2.11696,4.25372e-05
5,44,2.15022,5.26363e-05
6,44,2.18396,6.23788e-05
7,44,2.21819,7.17021e-05
8,44,2.25288,8.05501e-05
9,44,2.28805,8.88738e-05
10,44,2.32369,9.66316e-05
11,44,2.35979,0.00010379
12,44,2.39636,0.000110322
13,44,2.43337,0.000116209
14,44,2.47084,0.000121442
15,44,2.50875,0.000126015
16,44,2.5471,0.000129933
17,44,2.58587,0.000133203
18,44,2.62507,0.000135841
19,44,2.66468,0.000137866
20,44,2.7047,0.000139301
21,44,2.74511,0.000140173
22,44,2.7859,0.000140511
23,44,2.82706,0.000140348
24,44,2.86859,0.000139717
25,44,2.91047,0.000138651
26,44,2.95268,0.000137185
27,44,2.99522,0.000135354
28,44,3.03806,0.000133192
29,44,3.0812,0.000130731
30,44,3.12462,0.000128004
31,44,3.1683,0.000125042
32,44,3.21222,0.000121874
33,44,3.25638,0.000118528
34,44,3.30074,0.000115029
35,44,3.34529,0.000111401
36,44,3.39002,0.000107667
37,44,3.43489,0.000103847
38,44,3.47989,9.99591e-05
39,44,3.52501,9.60199e-05
40,44,3.57021,9.20444e-05
41,44,3.61547,8.80455e-05
42,44,3.66077,8.40347e-05
43,44,3.70609,8.00217e-05
44,44,3.75139,7.60149e-05
45,44,3.79667,7.20211e-05
46,44,3.84188,6.80459e-05
47,44,3.88701,6.40935e-05
48,44,3.93202,6.01671e-05
49,44,3.9769,5.62686e-05
50,44,4.0216,5.23991e-05
51,44,4.06611,4.85585e-05
52,44,4.1104,4.4746e-05
53,44,4.15443,4.09601e-05
54,44,4.19817,3.71984e-05
55,44,4.24161,3.34578e-05
56,44,4.2847,2.97349e-05
57,44,4.32742,2.60253e-05
58,44,4.36973,2.23246e-05
59,44,4.41161,1.86276e-05
60,44,4.45303,1.4929e-05
61,44,4.49395,1.1223e-05
62,44,4.53434,7.50366e-06
63,44,4.57418,3.76477e-06
1,45,2.05188,9.86831e-06
2,45,2.08419,1.96855e-05
3,45,2.11699,2.93812e-05
4,45,2.15029,3.88877e-05
5,45,2.18408,4.81398e-05
6,45,2.21835,5.70766e-05
7,45,2.25311,6.56422e-05
8,45,2.28835,7.37859e-05
9,45,2.32407,8.14632e-05
10,45,2.36027,8.8636e-05
11,45,2.39694,9.52728e-05
12,45,2.43408,0.000101349
13,45,2.47168,0.000106847
14,45,2.50974,0.000111755
15,45,2.54825,0.000116069
16,45,2.5872,0.000119789
17,45,2.62658,0.000122922
18,45,2.6664,0.000125479
19,45,2.70663,0.000127475
20,45,2.74728,0.000128932
21,45,2.78832,0.00012987
22,45,2.82976,0.000130316
23,45,2.87157,0.000130298
24,45,2.91375,0.000129843
25,45,2.95629,0.000128983
26,45,2.99917,0.000127747
27,45,3.04237,0.000126167
28,45,3.08589,0.000124273
29,45,3.12971,0.000122095
30,45,3.17381,0.000119662
31,45,3.21818,0.000117001
32,45,3.2628,0.00011414
33,45,3.30765,0.000111105
34,45,3.35271,0.000107918
35,45,3.39796,0.000104603
36,45,3.44339,0.000101179
37,45,3.48897,9.76666e-05
38,45,3.53469,9.40823e-05
39,45,3.58051,9.04421e-05
40,45,3.62642,8.67599e-05
41,45,3.6724,8.30483e-05
42,45,3.71841,7.93183e-05
43,45,3.76444,7.55794e-05
44,45,3.81046,7.18397e-05
45,45,3.85645,6.81061e-05
46,45,3.90238,6.43841e-05
47,45,3.94822,6.0678e-05
48,45,3.99394,5.69912e-05
49,45,4.03952,5.33258e-05
50,45,4.08493,4.96831e-05
51,45,4.13014,4.60634e-05
52,45,4.17512,4.24661e-05
53,45,4.21985,3.88901e-05
54,45,4.26428,3.53334e-05
55,45,4.3084,3.17932e-05
56,45,4.35217,2.82665e-05
57,45,4.39556,2.47494e-05
58,45,4.43854,2.12378e-05
59,45,4.48108,1.7727e-05
60,45,4.52315,1.42119e-05
61,45,4.56472,1.06874e-05
62,45,4.60575,7.14777e-06
63,45,4.64621,3.58728e-06
1,46,2.08419,9.00573e-06
2,46,2.11701,1.79685e-05
3,46,2.15033,2.68257e-05
4,46,2.18415,3.55169e-05
5,46,2.21846,4.3984e-05
6,46,2.25328,5.21724e-05
7,46,2.28858,6.0032e-05
8,46,2.32438,6.75169e-05
9,46,2.36067,7.45869e-05
10,46,2.39743,8.12071e-05
11,46,2.43468,8.73484e-05
12,46,2.4724,9.29879e-05
13,46,2.5106,9.81083e-05
14,46,2.54925,0.000102698
15,46,2.58836,0.000106752
16,46,2.62793,0.000110269
17,46,2.66794,0.000113253
18,46,2.70838,0.000115714
19,46,2.74924,0.000117664
20,46,2.79053,0.00011912
21,46,2.83222,0.0001201
22,46,2.87431,0.000120627
23,46,2.91678,0.000120724
24,46,2.95963,0.000120417
25,46,3.00283,0.000119732
26,46,3.04639,0.000118696
27,46,3.09027,0.000117337
28,46,3.13448,0.000115681
29,46,3.17899,0.000113756
30,46,3.22378,0.000111588
31,46,3.26885,0.000109202
32,46,3.31417,0.000106622
33,46,3.35973,0.000103873
34,46,3.4055,0.000100976
35,46,3.45147,9.79514e-05
36,46,3.49761,9.48186e-05
37,46,3.54391,9.15955e-05
38,46,3.59034,8.82982e-05
39,46,3.63689,8.49415e-05
40,46,3.68352,8.15389e-05
41,46,3.73022,7.81022e-05
42,46,3.77696,7.46419e-05
43,46,3.82372,7.11672e-05
44,46,3.87046,6.76861e-05
45,46,3.91718,6.42052e-05
46,46,3.96383,6.073e-05
47,46,4.01039,5.72649e-05
48,46,4.05683,5.38131e-05
49,46,4.10313,5.03772e-05
50,46,4.14926,4.69584e-05
51,46,4.19518,4.35573e-05
52,46,4.24087,4.01738e-05
53,46,4.2863,3.68067e-05
54,46,4.33143,3.34545e-05
55,46,4.37625,3.01148e-05
56,46,4.42071,2.67848e-05
57,46,4.46478,2.34611e-05
58,46,4.50844,2.01398e-05
59,46,4.55165,1.68165e-05
60,46,4.59438,1.34868e-05
61,46,4.6366,1.01456e-05
62,46,4.67828,6.78766e-06
63,46,4.71938,3.40766e-06
1,47,2.11701,8.20766e-06
2,47,2.15034,1.63796e-05
3,47,2.18419,2.44601e-05
4,47,2.21854,3.2395e-05
5,47,2.2534,4.01327e-05
6,47,2.28876,4.76243e-05
7,47,2.32462,5.48244e-05
8,47,2.36098,6.16921e-05
9,47,2.39783,6.81907e-05
10,47,2.43518,7.42883e-05
11,47,2.47301,7.99583e-05
12,47,2.51133,8.51791e-05
13,47,2.55012,8.99344e-05
14,47,2.58939,9.42128e-05
15,47,2.62912,9.8008e-05
16,47,2.6693,0.000101318
17,47,2.70994,0.000104146
18,47,2.75102,0.000106499
19,47,2.79253,0.000108387
20,47,2.83446,0.000109823
21,47,2.87681,0.000110823
22,47,2.91956,0.000111408
23,47,2.9627,0.000111596
24,47,3.00622,0.00011141
25,47,3.05011,0.000110874
26,47,3.09435,0.000110011
27,47,3.13893,0.000108845
28,47,3.18383,0.000107401
29,47,3.22904,0.000105702
30,47,3.27454,0.000103774
31,47,3.32032,0.000101637
32,47,3.36635,9.93161e-05
33,47,3.41263,9.68308e-05
34,47,3.45912,9.42019e-05
35,47,3.50581,9.14483e-05
36,47,3.55268,8.85877e-05
37,47,3.59971,8.56368e-05
38,47,3.64688,8.26106e-05
39,47,3.69415,7.9523e-05
40,47,3.74152,7.63867e-05
41,47,3.78896,7.32128e-05
42,47,3.83643,7.00115e-05
43,47,3.88393,6.67915e-05
44,47,3.93141,6.35605e-05
45,47,3.97886,6.03248e-05
46,47,4.02624,5.70899e-05
47,47,4.07354,5.38601e-05
48,47,4.12071,5.06388e-05
49,47,4.16774,4.74284e-05
50,47,4.21459,4.42303e-05
51,47,4.26124,4.10455e-05
52,47,4.30765,3.78737e-05
53,47,4.35379,3.47144e-05
54,47,4.39964,3.15659e-05
55,47,4.44516,2.84264e-05
56,47,4.49032,2.52932e-05
57,47,4.53509,2.21633e-05
58,47,4.57944,1.9033e-05
59,47,4.62333,1.58984e-05
60,47,4.66673,1.27552e-05
61,47,4.70962,9.59878e-06
62,47,4.75195,6.42419e-06
63,47,4.7937,3.22634e-06
1,48,2.15034,7.46717e-06
2,48,2.1842,1.49051e-05
3,48,2.21858,2.2264e-05
4,48,2.25347,2.94958e-05
5,48,2.28888,3.6554e-05
6,48,2.32479,4.3395e-05
7,48,2.36122,4.99781e-05
8,48,2.39815,5.62662e-05
9,48,2.43559,6.22262e-05
10,48,2.47352,6.78291e-05
11,48,2.51195,7.30503e-05
12,48,2.55087,7.78698e-05
13,48,2.59027,8.22722e-05
14,48,2.63015,8.62463e-05
15,48,2.67051,8.97856e-05
16,48,2.71133,9.28874e-05
17,48,2.7526,9.55533e-05
18,48,2.79433,9.77883e-05
19,48,2.83649,9.96006e-05
20,48,2.87909,0.000101002
21,48,2.9221,0.000102005
22,48,2.96553,0.000102626
23,48,3.00935,0.000102884
24,48,3.05355,0.000102797
25,48,3.09813,0.000102386
26,48,3.14307,0.000101671
27,48,3.18835,0.000100674
28,48,3.23396,9.94176e-05
29,48,3.27988,9.79224e-05
30,48,3.3261,9.62099e-05
31,48,3.3726,9.43011e-05
32,48,3.41936,9.2216e-05
33,48,3.46636,8.99741e-05
34,48,3.51358,8.75939e-05
35,48,3.56101,8.50927e-05
36,48,3.60862,8.2487e-05
37,48,3.65639,7.97921e-05
38,48,3.7043,7.7022e-05
39,48,3.75232,7.41898e-05
40,48,3.80044,7.13071e-05
41,48,3.84862,6.83847e-05
42,48,3.89684,6.5432e-05
43,48,3.94508,6.24574e-05
44,48,3.99332,5.9468e-05
45,48,4.04151,5.64703e-05
46,48,4.08964,5.34692e-05
47,48,4.13768,5.04692e-05
48,48,4.1856,4.74734e-05
49,48,4.23337,4.44844e-05
50,48,4.28096,4.15038e-05
51,48,4.32834,3.85324e-05
52,48,4.37548,3.55703e-05
53,48,4.42235,3.2617e-05
54,48,4.46892,2.96713e-05
55,48,4.51516,2.67312e-05
56,48,4.56103,2.37946e-05
57,48,4.60651,2.08585e-05
58,48,4.65155,1.79197e-05
59,48,4.69613,1.49745e-05
60,48,4.74022,1.20188e-05
61,48,4.78378,9.04817e-06
62,48,4.82678,6.05809e-06
63,48,4.86919,3.04369e-06
1,49,2.18421,6.77816e-06
2,49,2.2186,1.35328e-05
3,49,2.25352,2.02197e-05
4,49,2.28896,2.67956e-05
5,49,2.32492,3.32193e-05
6,49,2.3614,3.94515e-05
7,49,2.3984,4.54557e-05
8,49,2.43591,5.11986e-05
9,49,2.47393,5.66501e-05
10,49,2.51247,6.17838e-05
11,49,2.5515,6.65774e-05
12,49,2.59103,7.10122e-05
13,49,2.63105,7.50736e-05
14,49,2.67156,7.87511e-05
15,49,2.71255,8.20378e-05
16,49,2.75401,8.49308e-05
17,49,2.79594,8.74303e-05
18,49,2.83832,8.954e-05
19,49,2.88115,9.12666e-05
20,49,2.92442,9.26193e-05
21,49,2.96811,9.36096e-05
22,49,3.01222,9.42513e-05
23,49,3.05673,9.45597e-05
24,49,3.10163,9.45514e-05
25,49,3.14691,9.42443e-05
26,49,3.19256,9.36567e-05
27,49,3.23855,9.28079e-05
28,49,3.28488,9.1717e-05
29,49,3.33152,9.04035e-05
30,49,3.37847,8.88863e-05
31,49,3.4257,8.71844e-05
32,49,3.4732,8.53158e-05
33,49,3.52094,8.32983e-05
34,49,3.56891,8.11487e-05
35,49,3.61708,7.88829e-05
36,49,3.66544,7.65159e-05
37,49,3.71396,7.40619e-05
38,49,3.76263,7.1534e-05
39,49,3.81141,6.8944e-05
40,49,3.86028,6.63031e-05
41,49,3.90922,6.36212e-05
42,49,3.9582,6.09071e-05
43,49,4.00721,5.81688e-05
44,49,4.0562,5.54131e-05
45,49,4.10515,5.26459e-05
46,49,4.15404,4.98724e-05
47,49,4.20284,4.70964e-05
48,49,4.25151,4.43214e-05
49,49,4.30003,4.15497e-05
50,49,4.34837,3.8783e-05
51,49,4.3965,3.60221e-05
52,49,4.44438,3.32673e-05
53,49,4.49199,3.05182e-05
54,49,4.5393,2.77737e-05
55,49,4.58626,2.50323e-05
56,49,4.63286,2.22916e-05
57,49,4.67905,1.95492e-05
58,49,4.7248,1.6802e-05
59,49,4.77008,1.40464e-05
60,49,4.81487,1.12787e-05
61,49,4.85911,8.49472e-06
62,49,4.90279,5.69003e-06
63,49,4.94587,2.86004e-06
1,50,2.2186,6.13519e-06
2,50,2.25354,1.22521e-05
3,50,2.289,1.83111e-05
4,50,2.325,2.42738e-05
5,50,2.36153,3.01033e-05
6,50,2.39858,3.57643e-05
7,50,2.43616,4.12243e-05
8,50,2.47427,4.6453e-05
9,50,2.51289,5.14235e-05
10,50,2.55202,5.61117e-05
11,50,2.59167,6.04972e-05
12,50,2.63183,6.45628e-05
13,50,2.67248,6.8295e-05
14,50,2.71363,7.16836e-05
15,50,2.75526,7.47218e-05
16,50,2.79738,7.74063e-05
17,50,2.83996,7.97366e-05
18,50,2.88301,8.17153e-05
19,50,2.92651,8.33476e-05
20,50,2.97046,8.46411e-05
21,50,3.01484,8.56056e-05
22,50,3.05964,8.62526e-05
23,50,3.10486,8.65955e-05
24,50,3.15046,8.66485e-05
25,50,3.19646,8.64273e-05
26,50,3.24282,8.59482e-05
27,50,3.28954,8.5228e-05
28,50,3.3366,8.42837e-05
29,50,3.38398,8.31327e-05
30,50,3.43166,8.17919e-05
31,50,3.47964,8.02783e-05
32,50,3.52788,7.86083e-05
33,50,3.57638,7.67979e-05
34,50,3.6251,7.48623e-05
35,50,3.67403,7.2816e-05
36,50,3.72316,7.06729e-05
37,50,3.77244,6.84458e-05
38,50,3.82187,6.61468e-05
39,50,3.87142,6.3787e-05
40,50,3.92106,6.13765e-05
41,50,3.97078,5.89246e-05
42,50,4.02053,5.64396e-05
43,50,4.0703,5.39289e-05
44,50,4.12007,5.1399e-05
45,50,4.16979,4.88555e-05
46,50,4.21945,4.63031e-05
47,50,4.26902,4.37457e-05
48,50,4.31846,4.11865e-05
49,50,4.36774,3.86279e-05
50,50,4.41685,3.60714e-05
51,50,4.46573,3.3518e-05
52,50,4.51437,3.09679e-05
53,50,4.56273,2.8421e-05
54,50,4.61078,2.58762e-05
55,50,4.65848,2.3332e-05
56,50,4.70581,2.07866e-05
57,50,4.75273,1.82373e-05
58,50,4.7992,1.56815e-05
59,50,4.8452,1.31156e-05
60,50,4.89069,1.05362e-05
61,50,4.93563,7.93928e-06
62,50,4.98,5.32058e-06
63,50,5.02375,2.67568e-06
1,51,2.25354,5.53342e-06
2,51,2.28902,1.10532e-05
3,51,2.32505,1.65241e-05
4,51,2.36161,2.19118e-05
5,51,2.39871,2.71833e-05
6,51,2.43635,3.23071e-05
7,51,2.47452,3.7254e-05
8,51,2.51322,4.19969e-05
9,51,2.55245,4.65113e-05
10,51,2.59221,5.07757e-05
11,51,2.63248,5.47713e-05
12,51,2.67326,5.84825e-05
13,51,2.71456,6.18965e-05
14,51,2.75635,6.50039e-05
15,51,2.79864,6.77981e-05
16,51,2.84142,7.02754e-05
17,51,2.88468,7.24348e-05
18,51,2.9284,7.42781e-05
19,51,2.97259,7.58092e-05
20,51,3.01723,7.70345e-05
21,51,3.06231,7.79621e-05
22,51,3.10782,7.86019e-05
23,51,3.15374,7.89651e-05
24,51,3.20007,7.90644e-05
25,51,3.24679,7.89133e-05
26,51,3.29388,7.8526e-05
27,51,3.34133,7.79173e-05
28,51,3.38913,7.71025e-05
29,51,3.43726,7.60968e-05
30,51,3.4857,7.49154e-05
31,51,3.53443,7.35734e-05
32,51,3.58343,7.20857e-05
33,51,3.63269,7.04666e-05
34,51,3.68218,6.87298e-05
35,51,3.73188,6.68886e-05
36,51,3.78178,6.49555e-05
37,51,3.83184,6.29423e-05
38,51,3.88205,6.086e-05
39,51,3.93238,5.87188e-05
40,51,3.98281,5.65282e-05
41,51,4.0333,5.42965e-05
42,51,4.08384,5.20316e-05
43,51,4.1344,4.97402e-05
44,51,4.18494,4.74286e-05
45,51,4.23545,4.51018e-05
46,51,4.28589,4.27644e-05
47,51,4.33624,4.04202e-05
48,51,4.38646,3.80719e-05
49,51,4.43652,3.5722e-05
50,51,4.4864,3.3372e-05
51,51,4.53605,3.10229e-05
52,51,4.58546,2.86749e-05
53,51,4.63458,2.63279e-05
54,51,4.68338,2.39809e-05
55,51,4.73184,2.16327e-05
56,51,4.77991,1.92813e-05
57,51,4.82757,1.69245e-05
58,51,4.87478,1.45596e-05
59,51,4.9215,1.21833e-05
60,51,4.96771,9.79226e-06
61,51,5.01336,7.38258e-06
62,51,5.05842,4.9502e-06
63,51,5.10286,2.49083e-06
1,52,2.28903,4.96853e-06
2,52,2.32507,9.92766e-06
3,52,2.36166,1.4846e-05
4,52,2.3988,1.9693e-05
5,52,2.43648,2.4439e-05
6,52,2.47471,2.90562e-05
7,52,2.51349,3.35181e-05
8,52,2.5528,3.78007e-05
9,52,2.59264,4.1882e-05
10,52,2.63302,4.57424e-05
11,52,2.67393,4.93649e-05
12,52,2.71536,5.27353e-05
13,52,2.7573,5.58419e-05
14,52,2.79975,5.86757e-05
15,52,2.84271,6.12304e-05
16,52,2.88616,6.35023e-05
17,52,2.93009,6.54901e-05
18,52,2.97451,6.71947e-05
19,52,3.01939,6.86192e-05
20,52,3.06474,6.97688e-05
21,52,3.11052,7.06503e-05
22,52,3.15675,7.12719e-05
23,52,3.2034,7.16436e-05
24,52,3.25045,7.1776e-05
25,52,3.29791,7.16809e-05
26,52,3.34574,7.13709e-05
27,52,3.39394,7.08588e-05
28,52,3.4425,7.01582e-05
29,52,3.49138,6.92825e-05
30,52,3.54058,6.82452e-05
31,52,3.59008,6.70598e-05
32,52,3.63985,6.57396e-05
33,52,3.68989,6.42974e-05
34,52,3.74016,6.27457e-05
35,52,3.79065,6.10962e-05
36,52,3.84133,5.93605e-05
37,52,3.89218,5.75492e-05
38,52,3.94318,5.56723e-05
39,52,3.9943,5.37391e-05
40,52,4.04552,5.17583e-05
41,52,4.09681,4.97376e-05
42,52,4.14815,4.76841e-05
43,52,4.1995,4.56043e-05
44,52,4.25084,4.35036e-05
45,52,4.30215,4.13871e-05
46,52,4.35338,3.92587e-05
47,52,4.40452,3.71222e-05
48,52,4.45553,3.49801e-05
49,52,4.50638,3.28347e-05
50,52,4.55704,3.06875e-05
51,52,4.60748,2.85393e-05
52,52,4.65767,2.63906e-05
53,52,4.70756,2.42411e-05
54,52,4.75713,2.20899e-05
55,52,4.80635,1.9936e-05
56,52,4.85518,1.77775e-05
57,52,4.90359,1.56122e-05
58,52,4.95154,1.34375e-05
59,52,4.999,1.12505e-05
60,52,5.04593,9.04757e-06
61,52,5.09231,6.82517e-06
62,52,5.13808,4.57929e-06
63,52,5.18322,2.30569e-06
1,53,2.32507,4.43665e-06
2,53,2.36168,8.86775e-06
3,53,2.39885,1.32654e-05
4,53,2.43657,1.76023e-05
5,53,2.47485,2.18522e-05
6,53,2.51368,2.59901e-05
7,53,2.55306,2.99926e-05
8,53,2.59299,3.38381e-05
9,53,2.63347,3.75069e-05
10,53,2.67448,4.09814e-05
11,53,2.71603,4.42463e-05
12,53,2.75811,4.72886e-05
13,53,2.80071,5.00977e-05
14,53,2.84383,5.26652e-05
15,53,2.88747,5.49853e-05
16,53,2.9316,5.70541e-05
17,53,2.97623,5.88701e-05
18,53,3.02134,6.04337e-05
19,53,3.06693,6.17473e-05
20,53,3.11299,6.28151e-05
21,53,3.1595,6.36427e-05
22,53,3.20645,6.42371e-05
23,53,3.25383,6.46068e-05
24,53,3.30163,6.4761e-05
25,53,3.34983,6.47098e-05
26,53,3.39842,6.44643e-05
27,53,3.44738,6.40356e-05
28,53,3.4967,6.34357e-05
29,53,3.54635,6.26763e-05
30,53,3.59633,6.17696e-05
31,53,3.64661,6.07273e-05
32,53,3.69717,5.95613e-05
33,53,3.74799,5.82831e-05
34,53,3.79905,5.69038e-05
35,53,3.85033,5.54341e-05
36,53,3.90181,5.38842e-05
37,53,3.95347,5.22637e-05
38,53,4.00527,5.05817e-05
39,53,4.0572,4.88466e-05
40,53,4.10922,4.70663e-05
41,53,4.16132,4.52479e-05
42,53,4.21347,4.33978e-05
43,53,4.26563,4.1522e-05
44,53,4.31778,3.96255e-05
45,53,4.36989,3.77128e-05
46,53,4.42194,3.57878e-05
47,53,4.47388,3.38537e-05
48,53,4.52569,3.1913e-05
49,53,4.57735,2.99679e-05
50,53,4.6288,2.80197e-05
51,53,4.68004,2.60692e-05
52,53,4.73101,2.41168e-05
53,53,4.78169,2.21623e-05
54,53,4.83205,2.02049e-05
55,53,4.88204,1.82435e-05
56,53,4.93164,1.62764e-05
57,53,4.98081,1.43015e-05
58,53,5.02952,1.23163e-05
59,53,5.07772,1.03178e-05
60,53,5.1254,8.30275e-06
61,53,5.1725,6.2675e-06
62,53,5.21899,4.20811e-06
63,53,5.26485,2.1204e-06
1,54,2.36169,3.93429e-06
2,54,2.39887,7.86656e-06
3,54,2.43662,1.1772e-05
4,54,2.47494,1.56263e-05
5,54,2.51382,1.94063e-05
6,54,2.55326,2.30896e-05
7,54,2.59326,2.66556e-05
8,54,2.63382,3.00848e-05
9,54,2.67493,3.33598e-05
10,54,2.71659,3.64649e-05
11,54,2.7588,3.93863e-05
12,54,2.80154,4.21124e-05
13,54,2.84481,4.46333e-05
14,54,2.88861,4.69417e-05
15,54,2.93293,4.90317e-05
16,54,2.97776,5.08999e-05
17,54,3.02309,5.25446e-05
18,54,3.06892,5.39657e-05
19,54,3.11522,5.51651e-05
20,54,3.162,5.61461e-05
21,54,3.20925,5.69134e-05
22,54,3.25694,5.74729e-05
23,54,3.30507,5.78318e-05
24,54,3.35362,5.79979e-05
25,54,3.40258,5.79802e-05
26,54,3.45193,5.7788e-05
27,54,3.50166,5.74312e-05
28,54,3.55176,5.692e-05
29,54,3.60219,5.6265e-05
30,54,3.65296,5.54766e-05
31,54,3.70403,5.45654e-05
32,54,3.75538,5.35418e-05
33,54,3.807,5.2416e-05
34,54,3.85887,5.11978e-05
35,54,3.91096,4.98967e-05
36,54,3.96325,4.8522e-05
37,54,4.01572,4.70822e-05
38,54,4.06834,4.55855e-05
39,54,4.12108,4.40395e-05
40,54,4.17393,4.24511e-05
41,54,4.22685,4.08269e-05
42,54,4.27981,3.91727e-05
43,54,4.3328,3.74938e-05
44,54,4.38577,3.57949e-05
45,54,4.4387,3.40801e-05
46,54,4.49157,3.23528e-05
47,54,4.54433,3.06161e-05
48,54,4.59696,2.88723e-05
49,54,4.64943,2.71232e-05
50,54,4.70169,2.53702e-05
51,54,4.75373,2.3614e-05
52,54,4.80551,2.1855e-05
53,54,4.85699,2.00929e-05
54,54,4.90814,1.8327e-05
55,54,4.95892,1.65563e-05
56,54,5.0093,1.4779e-05
57,54,5.05925,1.29932e-05
58,54,5.10872,1.11965e-05
59,54,5.15769,9.38587e-06
60,54,5.20611,7.55819e-06
61,54,5.25395,5.70982e-06
62,54,5.30118,3.83684e-06
63,54,5.34775,1.93503e-06
1,55,2.39888,3.45833e-06
2,55,2.43665,6.91784e-06
3,55,2.47499,1.03565e-05
4,55,2.51391,1.37529e-05
5,55,2.5534,1.70864e-05
6,55,2.59347,2.03373e-05
7,55,2.6341,2.34871e-05
8,55,2.67529,2.65189e-05
9,55,2.71705,2.94171e-05
10,55,2.75937,3.21677e-05
11,55,2.80224,3.47585e-05
12,55,2.84565,3.7179e-05
13,55,2.8896,3.94206e-05
14,55,2.93409,4.14763e-05
15,55,2.97911,4.3341e-05
16,55,3.02465,4.50113e-05
17,55,3.07069,4.64855e-05
18,55,3.11724,4.77632e-05
19,55,3.16427,4.88459e-05
20,55,3.21179,4.97361e-05
21,55,3.25978,5.04378e-05
22,55,3.30822,5.09559e-05
23,55,3.35711,5.12965e-05
24,55,3.40642,5.14663e-05
25,55,3.45615,5.14728e-05
26,55,3.50628,5.13243e-05
27,55,3.5568,5.10292e-05
28,55,3.60768,5.05964e-05
29,55,3.65891,5.00351e-05
30,55,3.71047,4.93545e-05
31,55,3.76235,4.85636e-05
32,55,3.81451,4.76718e-05
33,55,3.86695,4.66879e-05
34,55,3.91963,4.56206e-05
35,55,3.97254,4.44784e-05
36,55,4.02566,4.32693e-05
37,55,4.07895,4.20011e-05
38,55,4.1324,4.06808e-05
39,55,4.18597,3.93154e-05
40,55,4.23965,3.7911e-05
41,55,4.29341,3.64735e-05
42,55,4.34721,3.50081e-05
43,55,4.40102,3.35196e-05
44,55,4.45483,3.20121e-05
45,55,4.5086,3.04894e-05
46,55,4.56229,2.89546e-05
47,55,4.61589,2.74103e-05
48,55,4.66935,2.58588e-05
49,55,4.72264,2.43018e-05
50,55,4.77573,2.27402e-05
51,55,4.82859,2.1175e-05
52,55,4.88118,1.96063e-05
53,55,4.93347,1.80339e-05
54,55,4.98543,1.64572e-05
55,55,5.03701,1.48751e-05
56,55,5.08818,1.32859e-05
57,55,5.13892,1.16879e-05
58,55,5.18917,1.00785e-05
59,55,5.23891,8.45494e-06
60,55,5.28809,6.81407e-06
61,55,5.33669,5.15225e-06
62,55,5.38466,3.46552e-06
63,55,5.43197,1.74961e-06
1,56,2.43665,3.00594e-06
2,56,2.47502,6.01598e-06
3,56,2.51397,9.01068e-06
4,56,2.5535,1.19711e-05
5,56,2.59361,1.4879e-05
6,56,2.63431,1.77171e-05
7,56,2.67558,2.04692e-05
8,56,2.71742,2.31203e-05
9,56,2.75984,2.56568e-05
10,56,2.80282,2.80663e-05
11,56,2.84636,3.03381e-05
12,56,2.89046,3.2463e-05
13,56,2.9351,3.44332e-05
14,56,2.98029,3.62425e-05
15,56,3.02602,3.78864e-05
16,56,3.07227,3.93615e-05
17,56,3.11904,4.06663e-05
18,56,3.16632,4.18002e-05
19,56,3.2141,4.27643e-05
20,56,3.26236,4.35607e-05
21,56,3.31111,4.41924e-05
22,56,3.36031,4.46637e-05
23,56,3.40997,4.49797e-05
24,56,3.46006,4.5146e-05
25,56,3.51057,4.51691e-05
26,56,3.56149,4.50559e-05
27,56,3.6128,4.48138e-05
28,56,3.66449,4.44504e-05
29,56,3.71653,4.39735e-05
30,56,3.7689,4.33912e-05
31,56,3.82159,4.27113e-05
32,56,3.87458,4.19418e-05
33,56,3.92784,4.10906e-05
34,56,3.98135,4.01651e-05
35,56,4.0351,3.91729e-05
36,56,4.08905,3.81209e-05
37,56,4.14318,3.70158e-05
38,56,4.19747,3.58641e-05
39,56,4.25189,3.46716e-05
40,56,4.30641,3.3444e-05
41,56,4.36101,3.21863e-05
42,56,4.41566,3.09032e-05
43,56,4.47033,2.95988e-05
44,56,4.52498,2.8277e-05
45,56,4.57959,2.69409e-05
46,56,4.63414,2.55935e-05
47,56,4.68857,2.42371e-05
48,56,4.74288,2.28735e-05
49,56,4.79701,2.15044e-05
50,56,4.85094,2.01306e-05
51,56,4.90463,1.8753e-05
52,56,4.95805,1.73715e-05
53,56,5.01116,1.59861e-05
54,56,5.06393,1.45961e-05
55,56,5.11633,1.32004e-05
56,56,5.16831,1.17975e-05
57,56,5.21984,1.03856e-05
58,56,5.27089,8.96238e-06
59,56,5.32141,7.52501e-06
60,56,5.37137,6.07032e-06
61,56,5.42073,4.59469e-06
62,56,5.46946,3.09408e-06
63,56,5.51751,1.56408e-06
1,57,2.47502,2.57457e-06
2,57,2.51399,5.15591e-06
3,57,2.55355,7.72688e-06
4,57,2.59371,1.02708e-05
5,57,2.63445,1.27717e-05
6,57,2.67579,1.52146e-05
7,57,2.71771,1.75852e-05
8,57,2.76021,1.98706e-05
9,57,2.80329,2.20588e-05
10,57,2.84695,2.41393e-05
11,57,2.89118,2.61026e-05
12,57,2.93597,2.79407e-05
13,57,2.98132,2.96468e-05
14,57,3.02722,3.12155e-05
15,57,3.07367,3.26427e-05
16,57,3.12065,3.39254e-05
17,57,3.16815,3.5062e-05
18,57,3.21618,3.60522e-05
19,57,3.26471,3.68964e-05
20,57,3.31373,3.75964e-05
21,57,3.36324,3.81548e-05
22,57,3.41322,3.85749e-05
23,57,3.46366,3.8861e-05
24,57,3.51454,3.90179e-05
25,57,3.56585,3.90509e-05
26,57,3.61757,3.8966e-05
27,57,3.66969,3.87694e-05
28,57,3.72219,3.84675e-05
29,57,3.77505,3.80671e-05
30,57,3.82824,3.75749e-05
31,57,3.88176,3.69977e-05
32,57,3.93559,3.63424e-05
33,57,3.98969,3.56157e-05
34,57,4.04404,3.4824e-05
35,57,4.09863,3.39738e-05
36,57,4.15343,3.30712e-05
37,57,4.20842,3.21219e-05
38,57,4.26356,3.11315e-05
39,57,4.31884,3.01051e-05
40,57,4.37422,2.90476e-05
41,57,4.42968,2.79633e-05
42,57,4.48519,2.68565e-05
43,57,4.54072,2.57306e-05
44,57,4.59623,2.45889e-05
45,57,4.65171,2.34345e-05
46,57,4.70711,2.22696e-05
47,57,4.76241,2.10964e-05
48,57,4.81756,1.99166e-05
49,57,4.87255,1.87314e-05
50,57,4.92732,1.75418e-05
51,57,4.98186,1.63483e-05
52,57,5.03612,1.51511e-05
53,57,5.09007,1.39498e-05
54,57,5.14368,1.27439e-05
55,57,5.1969,1.15324e-05
56,57,5.2497,1.03139e-05
57,57,5.30204,9.08649e-06
58,57,5.35389,7.84804e-06
59,57,5.4052,6.5958e-06
60,57,5.45595,5.32662e-06
61,57,5.50609,4.03682e-06
62,57,5.55559,2.72225e-06
63,57,5.6044,1.3783e-06
1,58,2.514,2.16195e-06
2,58,2.55358,4.33309e-06
3,58,2.59376,6.49831e-06
4,58,2.63455,8.64305e-06
5,58,2.67594,1.07534e-05
6,58,2.71792,1.28164e-05
7,58,2.7605,1.48199e-05
8,58,2.80367,1.67527e-05
9,58,2.84743,1.86047e-05
10,58,2.89178,2.03667e-05
11,58,2.9367,2.20308e-05
12,58,2.9822,2.35901e-05
13,58,3.02826,2.50387e-05
14,58,3.07489,2.63719e-05
15,58,3.12206,2.75863e-05
16,58,3.16978,2.86793e-05
17,58,3.21804,2.96493e-05
18,58,3.26682,3.04959e-05
19,58,3.31611,3.12194e-05
20,58,3.36591,3.18213e-05
21,58,3.4162,3.23035e-05
22,58,3.46696,3.26689e-05
23,58,3.5182,3.29208e-05
24,58,3.56988,3.30633e-05
25,58,3.622,3.31008e-05
26,58,3.67453,3.30382e-05
27,58,3.72747,3.28807e-05
28,58,3.7808,3.26337e-05
29,58,3.83449,3.23028e-05
30,58,3.88852,3.18938e-05
31,58,3.94289,3.14122e-05
32,58,3.99756,3.0864e-05
33,58,4.05251,3.02546e-05
34,58,4.10772,2.95898e-05
35,58,4.16317,2.88747e-05
36,58,4.21884,2.81146e-05
37,58,4.27469,2.73145e-05
38,58,4.3307,2.6479e-05
39,58,4.38685,2.56125e-05
40,58,4.4431,2.4719e-05
41,58,4.49944,2.38025e-05
42,58,4.55582,2.28663e-05
43,58,4.61222,2.19136e-05
44,58,4.66861,2.09472e-05
45,58,4.72496,1.99695e-05
46,58,4.78123,1.89826e-05
47,58,4.8374,1.79884e-05
48,58,4.89342,1.69882e-05
49,58,4.94927,1.59832e-05
50,58,5.00492,1.49741e-05
51,58,5.06031,1.39614e-05
52,58,5.11543,1.29451e-05
53,58,5.17023,1.19251e-05
54,58,5.22468,1.09007e-05
55,58,5.27874,9.87096e-06
56,58,5.33237,8.83464e-06
57,58,5.38553,7.78999e-06
58,58,5.4382,6.73488e-06
59,58,5.49032,5.66669e-06
60,58,5.54187,4.5823e-06
61,58,5.5928,3.47802e-06
62,58,5.64307,2.34955e-06
63,58,5.69265,1.19201e-06
1,59,2.55359,1.76608e-06
2,59,2.59379,3.54347e-06
3,59,2.63461,5.31886e-06
4,59,2.67604,7.07961e-06
5,59,2.71807,8.81383e-06
6,59,2.76072,1.05105e-05
7,59,2.80397,1.21593e-05
8,59,2.84782,1.3751e-05
9,59,2.89227,1.5277e-05
10,59,2.93731,1.67299e-05
11,59,2.98295,1.81029e-05
12,59,3.02916,1.93903e-05
13,59,3.07595,2.05872e-05
14,59,3.1233,2.16898e-05
15,59,3.17122,2.2695e-05
16,59,3.21969,2.36007e-05
17,59,3.26871,2.44056e-05
18,59,3.31826,2.51091e-05
19,59,3.36833,2.57116e-05
20,59,3.41891,2.6214e-05
21,59,3.46999,2.6618e-05
22,59,3.52156,2.69257e-05
23,59,3.57359,2.71401e-05
24,59,3.62609,2.72642e-05
25,59,3.67903,2.73016e-05
26,59,3.73239,2.72564e-05
27,59,3.78617,2.71328e-05
28,59,3.84033,2.69351e-05
29,59,3.89487,2.6668e-05
30,59,3.94975,2.63362e-05
31,59,4.00497,2.59442e-05
32,59,4.0605,2.54969e-05
33,59,4.11632,2.49989e-05
34,59,4.1724,2.44547e-05
35,59,4.22873,2.38688e-05
36,59,4.28527,2.32454e-05
37,59,4.342,2.25886e-05
38,59,4.39889,2.19023e-05
39,59,4.45593,2.11901e-05
40,59,4.51307,2.04554e-05
41,59,4.57029,1.97014e-05
42,59,4.62756,1.89309e-05
43,59,4.68485,1.81465e-05
44,59,4.74213,1.73506e-05
45,59,4.79936,1.65452e-05
46,59,4.85652,1.57321e-05
47,59,4.91357,1.49127e-05
48,59,4.97048,1.40882e-05
49,59,5.02721,1.32596e-05
50,59,5.08373,1.24274e-05
51,59,5.14,1.15921e-05
52,59,5.19598,1.07536e-05
53,59,5.25165,9.91183e-06
54,59,5.30695,9.06613e-06
55,59,5.36186,8.21568e-06
56,59,5.41634,7.35929e-06
57,59,5.47034,6.4954e-06
58,59,5.52384,5.62201e-06
59,59,5.57678,4.73666e-06
60,59,5.62914,3.83632e-06
61,59,5.68087,2.91731e-06
62,59,5.73194,1.9752e-06
63,59,5.7823,1.00476e-06
1,60,2.5938,1.38526e-06
2,60,2.63464,2.78355e-06
3,60,2.6761,4.18313e-06
4,60,2.71818,5.57315e-06
5,60,2.76088,6.94364e-06
6,60,2.80419,8.28548e-06
7,60,2.84812,9.59035e-06
8,60,2.89267,1.08507e-05
9,60,2.93781,1.20597e-05
10,60,2.98357,1.32114e-05
11,60,3.02992,1.43003e-05
12,60,3.07686,1.53219e-05
13,60,3.12438,1.62723e-05
14,60,3.17248,1.71483e-05
15,60,3.22116,1.79476e-05
16,60,3.27039,1.86683e-05
17,60,3.32018,1.93095e-05
18,60,3.37051,1.98706e-05
19,60,3.42136,2.03519e-05
20,60,3.47274,2.0754e-05
21,60,3.52463,2.10783e-05
22,60,3.57701,2.13264e-05
23,60,3.62986,2.15004e-05
24,60,3.68319,2.16029e-05
25,60,3.73696,2.16367e-05
26,60,3.79116,2.1605e-05
27,60,3.84578,2.15109e-05
28,60,3.9008,2.13581e-05
29,60,3.95619,2.115e-05
30,60,4.01195,2.08905e-05
31,60,4.06804,2.05831e-05
32,60,4.12444,2.02317e-05
33,60,4.18114,1.98398e-05
34,60,4.2381,1.94112e-05
35,60,4.29532,1.89493e-05
36,60,4.35275,1.84575e-05
37,60,4.41037,1.7939e-05
38,60,4.46816,1.7397e-05
39,60,4.52609,1.68343e-05
40,60,4.58413,1.62536e-05
41,60,4.64225,1.56574e-05
42,60,4.70043,1.50481e-05
43,60,4.75862,1.44277e-05
44,60,4.8168,1.3798e-05
45,60,4.87494,1.31608e-05
46,60,4.933,1.25173e-05
47,60,4.99095,1.18688e-05
48,60,5.04875,1.12163e-05
49,60,5.10638,1.05604e-05
50,60,5.16378,9.90162e-06
51,60,5.22094,9.24027e-06
52,60,5.2778,8.57637e-06
53,60,5.33435,7.90969e-06
54,60,5.39052,7.23976e-06
55,60,5.4463,6.56586e-06
56,60,5.50163,5.88693e-06
57,60,5.55649,5.2016e-06
58,60,5.61082,4.50811e-06
59,60,5.6646,3.80422e-06
60,60,5.71779,3.0871e-06
61,60,5.77033,2.35319e-06
62,60,5.8222,1.59798e-06
63,60,5.87336,8.15855e-07
1,61,2.63465,1.01817e-06
2,61,2.67613,2.05049e-06
3,61,2.71824,3.08652e-06
4,61,2.76098,4.11717e-06
5,61,2.80435,5.13441e-06
6,61,2.84835,6.13114e-06
7,61,2.89297,7.10097e-06
8,61,2.93822,8.03815e-06
9,61,2.98408,8.93755e-06
10,61,3.03055,9.7946e-06
11,61,3.07763,1.06053e-05
12,61,3.12531,1.13662e-05
13,61,3.17358,1.20744e-05
14,61,3.22244,1.27275e-05
15,61,3.27188,1.33237e-05
16,61,3.32189,1.38617e-05
17,61,3.37246,1.43406e-05
18,61,3.42358,1.47601e-05
19,61,3.47524,1.51203e-05
20,61,3.52742,1.54217e-05
21,61,3.58013,1.56652e-05
22,61,3.63333,1.58521e-05
23,61,3.68702,1.59839e-05
24,61,3.74118,1.60625e-05
25,61,3.7958,1.60899e-05
26,61,3.85086,1.60686e-05
27,61,3.90634,1.60008e-05
28,61,3.96222,1.58892e-05
29,61,4.01849,1.57364e-05
30,61,4.07512,1.55453e-05
31,61,4.13209,1.53185e-05
32,61,4.18939,1.50588e-05
33,61,4.24698,1.47689e-05
34,61,4.30484,1.44516e-05
35,61,4.36295,1.41094e-05
36,61,4.42129,1.3745e-05
37,61,4.47982,1.33606e-05
38,61,4.53852,1.29586e-05
39,61,4.59736,1.25412e-05
40,61,4.65632,1.21104e-05
41,61,4.71535,1.1668e-05
42,61,4.77444,1.12158e-05
43,61,4.83355,1.07554e-05
44,61,4.89265,1.02881e-05
45,61,4.9517,9.81512e-06
46,61,5.01068,9.33756e-06
47,61,5.06954,8.85627e-06
48,61,5.12825,8.37198e-06
49,61,5.18679,7.88522e-06
50,61,5.2451,7.39636e-06
51,61,5.30315,6.90558e-06
52,61,5.36092,6.4129e-06
53,61,5.41835,5.91812e-06
54,61,5.47541,5.42088e-06
55,61,5.53206,4.92057e-06
56,61,5.58827,4.41636e-06
57,61,5.64399,3.90713e-06
58,61,5.69918,3.39143e-06
59,61,5.75381,2.86735e-06
60,61,5.80783,2.33243e-06
61,61,5.8612,1.78343e-06
62,61,5.91389,1.21597e-06
63,61,5.96585,6.24135e-07
1,62,2.67614,6.64114e-07
2,62,2.71827,1.3423e-06
3,62,2.76104,2.02531e-06
4,62,2.80446,2.706e-06
5,62,2.84851,3.37854e-06
6,62,2.8932,4.03794e-06
7,62,2.93853,4.67984e-06
8,62,2.98448,5.30035e-06
9,62,3.03106,5.89603e-06
10,62,3.07827,6.46382e-06
11,62,3.12609,7.00105e-06
12,62,3.17452,7.50541e-06
13,62,3.22355,7.97497e-06
14,62,3.27318,8.40816e-06
15,62,3.3234,8.80373e-06
16,62,3.37419,9.16081e-06
17,62,3.42556,9.47884e-06
18,62,3.47749,9.75758e-06
19,62,3.52996,9.99708e-06
20,62,3.58297,1.01977e-05
21,62,3.6365,1.03599e-05
22,62,3.69054,1.04847e-05
23,62,3.74508,1.0573e-05
24,62,3.80009,1.06261e-05
25,62,3.85557,1.06453e-05
26,62,3.9115,1.06321e-05
27,62,3.96785,1.05881e-05
28,62,4.02461,1.05152e-05
29,62,4.08177,1.04149e-05
30,62,4.13929,1.02892e-05
31,62,4.19716,1.01399e-05
32,62,4.25535,9.9687e-06
33,62,4.31385,9.77756e-06
34,62,4.37263,9.56822e-06
35,62,4.43165,9.34242e-06
36,62,4.49091,9.10182e-06
37,62,4.55036,8.84805e-06
38,62,4.60999,8.58263e-06
39,62,4.66976,8.30701e-06
40,62,4.72964,8.02252e-06
41,62,4.78961,7.73042e-06
42,62,4.84963,7.43186e-06
43,62,4.90967,7.12786e-06
44,62,4.96969,6.81935e-06
45,62,5.02968,6.50715e-06
46,62,5.08958,6.19196e-06
47,62,5.14937,5.87436e-06
48,62,5.20901,5.55483e-06
49,62,5.26846,5.23372e-06
50,62,5.32769,4.91127e-06
51,62,5.38666,4.58761e-06
52,62,5.44534,4.26272e-06
53,62,5.50367,3.93647e-06
54,62,5.56163,3.6086e-06
55,62,5.61918,3.27869e-06
56,62,5.67627,2.94615e-06
57,62,5.73287,2.61017e-06
58,62,5.78893,2.26971e-06
59,62,5.84441,1.92336e-06
60,62,5.89929,1.56926e-06
61,62,5.9535,1.20479e-06
62,62,6.00702,8.26153e-07
63,62,6.0598,4.2759e-07
1,63,2.71828,3.23598e-07
2,63,2.76108,6.58321e-07
3,63,2.80452,9.96892e-07
4,63,2.84862,1.3349e-06
5,63,2.89337,1.66914e-06
6,63,2.93876,1.99701e-06
7,63,2.9848,2.31626e-06
8,63,3.03148,2.62495e-06
9,63,3.07879,2.92133e-06
10,63,3.12674,3.20387e-06
11,63,3.17531,3.47124e-06
12,63,3.22451,3.72229e-06
13,63,3.27431,3.95605e-06
14,63,3.32472,4.17173e-06
15,63,3.37573,4.36871e-06
16,63,3.42733,4.54655e-06
17,63,3.4795,4.70498e-06
18,63,3.53224,4.84387e-06
19,63,3.58554,4.96324e-06
20,63,3.63939,5.06326e-06
21,63,3.69376,5.14422e-06
22,63,3.74865,5.20653e-06
23,63,3.80405,5.25069e-06
24,63,3.85993,5.27732e-06
25,63,3.91628,5.28709e-06
26,63,3.97309,5.28076e-06
27,63,4.03033,5.25914e-06
28,63,4.08799,5.22306e-06
29,63,4.14604,5.17343e-06
30,63,4.20447,5.11113e-06
31,63,4.26325,5.03708e-06
32,63,4.32236,4.95219e-06
33,63,4.38178,4.85737e-06
34,63,4.44148,4.75351e-06
35,63,4.50144,4.64148e-06
36,63,4.56162,4.52212e-06
37,63,4.62201,4.39623e-06
38,63,4.68258,4.26457e-06
39,63,4.74329,4.12786e-06
40,63,4.80412,3.98678e-06
41,63,4.86503,3.84196e-06
42,63,4.92599,3.69395e-06
43,63,4.98698,3.54329e-06
44,63,5.04795,3.39043e-06
45,63,5.10888,3.23579e-06
46,63,5.16973,3.0797e-06
47,63,5.23046,2.92246e-06
48,63,5.29104,2.76432e-06
49,63,5.35143,2.60544e-06
50,63,5.41159,2.44594e-06
51,63,5.47149,2.28589e-06
52,63,5.53109,2.12526e-06
53,63,5.59034,1.96401e-06
54,63,5.64921,1.80198e-06
55,63,5.70766,1.63895e-06
56,63,5.76565,1.47462e-06
57,63,5.82314,1.30858e-06
58,63,5.88009,1.14025e-06
59,63,5.93645,9.68908e-07
60,63,5.99219,7.935e-07
61,63,6.04725,6.12517e-07
62,63,6.10162,4.23562e-07
63,63,6.15523,2.22363e-07
