18,1,1.34069,-6.78443e-08
19,1,1.36092,3.00889e-08
20,1,1.38135,1.15218e-07
21,1,1.40199,1.88227e-07
22,1,1.42283,2.50311e-07
23,1,1.44385,3.02857e-07
24,1,1.46506,3.47169e-07
25,1,1.48645,3.84379e-07
26,1,1.50801,4.15443e-07
27,1,1.52974,4.41164e-07
28,1,1.55162,4.62219e-07
29,1,1.57366,4.79181e-07
30,1,1.59583,4.92539e-07
31,1,1.61815,5.02713e-07
32,1,1.64058,5.10063e-07
33,1,1.66313,5.14901e-07
34,1,1.68579,5.17495e-07
35,1,1.70855,5.1808e-07
36,1,1.7314,5.16858e-07
37,1,1.75432,5.14005e-07
38,1,1.77731,5.09675e-07
39,1,1.80035,5.03998e-07
40,1,1.82344,4.97089e-07
41,1,1.84656,4.89044e-07
42,1,1.8697,4.79947e-07
43,1,1.89284,4.69866e-07
44,1,1.91599,4.58856e-07
45,1,1.93911,4.46962e-07
46,1,1.96221,4.34218e-07
47,1,1.98526,4.20645e-07
48,1,2.00825,4.06254e-07
49,1,2.03117,3.91047e-07
50,1,2.05401,3.75011e-07
51,1,2.07674,3.58124e-07
52,1,2.09936,3.40351e-07
53,1,2.12185,3.21641e-07
54,1,2.1442,3.01927e-07
55,1,2.16638,2.81121e-07
56,1,2.1884,2.5911e-07
57,1,2.21022,2.35748e-07
58,1,2.23183,2.10844e-07
59,1,2.25322,1.84142e-07
60,1,2.27438,1.55282e-07
61,1,2.29528,1.23736e-07
62,1,2.31591,8.86519e-08
63,1,2.33626,4.84892e-08
18,2,1.3618,-1.01454e-07
19,2,1.38235,9.24303e-08
20,2,1.40311,2.62325e-07
21,2,1.42407,4.07438e-07
22,2,1.44523,5.30475e-07
23,2,1.46659,6.34484e-07
24,2,1.48813,7.22162e-07
25,2,1.50986,7.95773e-07
26,2,1.53176,8.57204e-07
27,2,1.55383,9.08032e-07
28,2,1.57606,9.49586e-07
29,2,1.59844,9.82993e-07
30,2,1.62097,1.00921e-06
31,2,1.64363,1.02908e-06
32,2,1.66642,1.04329e-06
33,2,1.68933,1.05246e-06
34,2,1.71234,1.05713e-06
35,2,1.73546,1.05775e-06
36,2,1.75866,1.05472e-06
37,2,1.78194,1.0484e-06
38,2,1.80529,1.03909e-06
39,2,1.8287,1.02704e-06
40,2,1.85215,1.01247e-06
41,2,1.87563,9.9559e-07
42,2,1.89914,9.76551e-07
43,2,1.92265,9.55492e-07
44,2,1.94616,9.32524e-07
45,2,1.96965,9.07734e-07
46,2,1.99311,8.81189e-07
47,2,2.01652,8.52933e-07
48,2,2.03988,8.22988e-07
49,2,2.06316,7.91357e-07
50,2,2.08635,7.58019e-07
51,2,2.10945,7.22932e-07
52,2,2.13242,6.86025e-07
53,2,2.15527,6.47202e-07
54,2,2.17797,6.06335e-07
55,2,2.2005,5.63253e-07
56,2,2.22286,5.17742e-07
57,2,2.24502,4.69524e-07
58,2,2.26698,4.18239e-07
59,2,2.28871,3.63413e-07
60,2,2.31019,3.04401e-07
61,2,2.33142,2.403e-07
62,2,2.35238,1.69775e-07
63,2,2.37305,9.07677e-08
18,3,1.38324,-1.08909e-07
19,3,1.40412,1.98516e-07
20,3,1.4252,4.54293e-07
21,3,1.4465,6.69097e-07
22,3,1.46799,8.50301e-07
23,3,1.48969,1.0033e-06
24,3,1.51157,1.13227e-06
25,3,1.53364,1.24055e-06
26,3,1.55588,1.33087e-06
27,3,1.5783,1.40554e-06
28,3,1.60088,1.46649e-06
29,3,1.62361,1.51535e-06
30,3,1.64649,1.55353e-06
31,3,1.66951,1.58224e-06
32,3,1.69266,1.60252e-06
33,3,1.71593,1.61526e-06
34,3,1.73931,1.62124e-06
35,3,1.76279,1.62115e-06
36,3,1.78636,1.61557e-06
37,3,1.81001,1.60501e-06
38,3,1.83372,1.58992e-06
39,3,1.8575,1.57067e-06
40,3,1.88132,1.5476e-06
41,3,1.90517,1.521e-06
42,3,1.92905,1.49109e-06
43,3,1.95293,1.45809e-06
44,3,1.97681,1.42216e-06
45,3,2.00067,1.38342e-06
46,3,2.02449,1.34198e-06
47,3,2.04828,1.29791e-06
48,3,2.072,1.25122e-06
49,3,2.09565,1.20194e-06
50,3,2.11921,1.15004e-06
51,3,2.14267,1.09545e-06
52,3,2.166,1.03807e-06
53,3,2.18921,9.7777e-07
54,3,2.21226,9.14366e-07
55,3,2.23515,8.47619e-07
56,3,2.25786,7.77225e-07
57,3,2.28038,7.02798e-07
58,3,2.30268,6.23845e-07
59,3,2.32475,5.39731e-07
60,3,2.34657,4.49622e-07
61,3,2.36814,3.52408e-07
62,3,2.38943,2.46573e-07
63,3,2.41042,1.30041e-07
18,4,1.40503,-2.91927e-08
19,4,1.42623,3.76316e-07
20,4,1.44765,7.07629e-07
21,4,1.46928,9.85051e-07
22,4,1.49111,1.21929e-06
23,4,1.51314,1.41734e-06
24,4,1.53537,1.58445e-06
25,4,1.55779,1.7248e-06
26,4,1.58039,1.84184e-06
27,4,1.60315,1.93849e-06
28,4,1.62609,2.0172e-06
29,4,1.64918,2.08008e-06
30,4,1.67242,2.12894e-06
31,4,1.6958,2.16533e-06
32,4,1.71932,2.19058e-06
33,4,1.74295,2.20587e-06
34,4,1.7667,2.2122e-06
35,4,1.79055,2.21046e-06
36,4,1.81449,2.20139e-06
37,4,1.83851,2.18567e-06
38,4,1.8626,2.16388e-06
39,4,1.88675,2.1365e-06
40,4,1.91095,2.10398e-06
41,4,1.93517,2.06667e-06
42,4,1.95943,2.02491e-06
43,4,1.98368,1.97893e-06
44,4,2.00794,1.92897e-06
45,4,2.03217,1.87519e-06
46,4,2.05638,1.81772e-06
47,4,2.08053,1.75665e-06
48,4,2.10463,1.69203e-06
49,4,2.12865,1.62386e-06
50,4,2.15258,1.55212e-06
51,4,2.17641,1.47672e-06
52,4,2.20011,1.39756e-06
53,4,2.22368,1.31445e-06
54,4,2.2471,1.22717e-06
55,4,2.27035,1.13543e-06
56,4,2.29342,1.03885e-06
57,4,2.31629,9.36971e-07
58,4,2.33894,8.29197e-07
59,4,2.36136,7.14792e-07
60,4,2.38353,5.92819e-07
61,4,2.40543,4.62084e-07
62,4,2.42705,3.21062e-07
63,4,2.44838,1.67823e-07
18,5,1.42715,1.9346e-07
19,5,1.44869,6.48693e-07
20,5,1.47044,1.03557e-06
21,5,1.49241,1.36521e-06
22,5,1.51459,1.64575e-06
23,5,1.53697,1.88385e-06
24,5,1.55955,2.08511e-06
25,5,1.58232,2.25422e-06
26,5,1.60527,2.39518e-06
27,5,1.6284,2.51141e-06
28,5,1.6517,2.60581e-06
29,5,1.67515,2.68088e-06
30,5,1.69876,2.73878e-06
31,5,1.72251,2.78137e-06
32,5,1.74639,2.81025e-06
33,5,1.7704,2.82684e-06
34,5,1.79452,2.83234e-06
35,5,1.81875,2.82781e-06
36,5,1.84306,2.81417e-06
37,5,1.86746,2.79223e-06
38,5,1.89193,2.76269e-06
39,5,1.91646,2.72614e-06
40,5,1.94104,2.68311e-06
41,5,1.96565,2.63405e-06
42,5,1.99028,2.57935e-06
43,5,2.01492,2.51931e-06
44,5,2.03956,2.4542e-06
45,5,2.06418,2.38423e-06
46,5,2.08876,2.30955e-06
47,5,2.1133,2.23029e-06
48,5,2.13777,2.1465e-06
49,5,2.16217,2.05819e-06
50,5,2.18648,1.96534e-06
51,5,2.21068,1.86785e-06
52,5,2.23476,1.76559e-06
53,5,2.2587,1.65836e-06
54,5,2.28249,1.5459e-06
55,5,2.30611,1.42788e-06
56,5,2.32954,1.30387e-06
57,5,2.35276,1.17335e-06
58,5,2.37577,1.03568e-06
59,5,2.39854,8.90057e-07
60,5,2.42106,7.35504e-07
61,5,2.44331,5.70824e-07
62,5,2.46528,3.94556e-07
63,5,2.48694,2.04954e-07
17,6,1.42798,4.64614e-08
18,6,1.44963,5.26975e-07
19,6,1.4715,1.01012e-06
20,6,1.4936,1.44181e-06
21,6,1.51592,1.81582e-06
22,6,1.53844,2.13627e-06
23,6,1.56118,2.40908e-06
24,6,1.58411,2.63996e-06
25,6,1.60724,2.834e-06
26,6,1.63055,2.9956e-06
27,6,1.65404,3.12856e-06
28,6,1.67771,3.23616e-06
29,6,1.70153,3.32124e-06
30,6,1.72551,3.38624e-06
31,6,1.74964,3.43328e-06
32,6,1.77389,3.46421e-06
33,6,1.79828,3.48062e-06
34,6,1.82278,3.48392e-06
35,6,1.84739,3.47532e-06
36,6,1.87209,3.45588e-06
37,6,1.89687,3.42653e-06
38,6,1.92173,3.38808e-06
39,6,1.94664,3.34121e-06
40,6,1.97161,3.28654e-06
41,6,1.99661,3.22459e-06
42,6,2.02162,3.1558e-06
43,6,2.04665,3.08054e-06
44,6,2.07168,2.99911e-06
45,6,2.09668,2.91176e-06
46,6,2.12165,2.81867e-06
47,6,2.14658,2.71999e-06
48,6,2.17144,2.61577e-06
49,6,2.19622,2.50605e-06
50,6,2.22091,2.3908e-06
51,6,2.2455,2.26991e-06
52,6,2.26995,2.14325e-06
53,6,2.29427,2.0106e-06
54,6,2.31843,1.87167e-06
55,6,2.34242,1.72611e-06
56,6,2.36622,1.57345e-06
57,6,2.38981,1.41315e-06
58,6,2.41318,1.24453e-06
59,6,2.43631,1.06677e-06
60,6,2.45919,8.78897e-07
61,6,2.48179,6.79749e-07
62,6,2.5041,4.67962e-07
63,6,2.5261,2.41963e-07
17,7,1.45047,1.87913e-07
18,7,1.47246,8.78508e-07
19,7,1.49468,1.44404e-06
20,7,1.51712,1.9271e-06
21,7,1.53979,2.34167e-06
22,7,1.56267,2.69639e-06
23,7,1.58576,2.99843e-06
24,7,1.60906,3.25408e-06
25,7,1.63255,3.46879e-06
26,7,1.65623,3.64732e-06
27,7,1.68009,3.79381e-06
28,7,1.70413,3.9118e-06
29,7,1.72833,4.00441e-06
30,7,1.75268,4.0743e-06
31,7,1.77719,4.12382e-06
32,7,1.80183,4.15499e-06
33,7,1.8266,4.16959e-06
34,7,1.85149,4.16916e-06
35,7,1.87648,4.15506e-06
36,7,1.90157,4.12846e-06
37,7,1.92674,4.09039e-06
38,7,1.95199,4.04176e-06
39,7,1.9773,3.98334e-06
40,7,2.00266,3.91582e-06
41,7,2.02805,3.83976e-06
42,7,2.05346,3.75567e-06
43,7,2.07888,3.66397e-06
44,7,2.1043,3.565e-06
45,7,2.1297,3.45903e-06
46,7,2.15507,3.34629e-06
47,7,2.18038,3.22691e-06
48,7,2.20563,3.101e-06
49,7,2.23081,2.96857e-06
50,7,2.25589,2.82961e-06
51,7,2.28086,2.68402e-06
52,7,2.3057,2.53165e-06
53,7,2.3304,2.37227e-06
54,7,2.35494,2.20558e-06
55,7,2.37931,2.03122e-06
56,7,2.40348,1.8487e-06
57,7,2.42745,1.65747e-06
58,7,2.45119,1.45684e-06
59,7,2.47468,1.246e-06
60,7,2.49792,1.024e-06
61,7,2.52087,7.89734e-07
62,7,2.54353,5.41947e-07
63,7,2.56588,2.79217e-07
17,8,1.47331,6.77086e-07
18,8,1.49565,1.37608e-06
19,8,1.51821,1.9818e-06
20,8,1.54101,2.50259e-06
21,8,1.56404,2.94939e-06
22,8,1.58728,3.33149e-06
23,8,1.61074,3.65675e-06
24,8,1.6344,3.93188e-06
25,8,1.65826,4.16267e-06
26,8,1.68231,4.35414e-06
27,8,1.70655,4.51065e-06
28,8,1.73096,4.63597e-06
29,8,1.75555,4.73339e-06
30,8,1.78029,4.80576e-06
31,8,1.80518,4.85558e-06
32,8,1.83021,4.88503e-06
33,8,1.85536,4.89601e-06
34,8,1.88064,4.89019e-06
35,8,1.90603,4.86902e-06
36,8,1.93152,4.83378e-06
37,8,1.95709,4.78559e-06
38,8,1.98273,4.72543e-06
39,8,2.00844,4.65414e-06
40,8,2.03419,4.57246e-06
41,8,2.05999,4.48102e-06
42,8,2.0858,4.38037e-06
43,8,2.11162,4.27097e-06
44,8,2.13744,4.15318e-06
45,8,2.16324,4.02732e-06
46,8,2.189,3.89363e-06
47,8,2.21472,3.75227e-06
48,8,2.24037,3.60334e-06
49,8,2.26594,3.4469e-06
50,8,2.29141,3.28291e-06
51,8,2.31678,3.11128e-06
52,8,2.34201,2.93187e-06
53,8,2.3671,2.74444e-06
54,8,2.39203,2.5487e-06
55,8,2.41678,2.34427e-06
56,8,2.44133,2.13066e-06
57,8,2.46568,1.90733e-06
58,8,2.48979,1.67359e-06
59,8,2.51365,1.42866e-06
60,8,2.53725,1.17164e-06
61,8,2.56057,9.01482e-07
62,8,2.58359,6.17027e-07
63,8,2.60629,3.16993e-07
16,9,1.47407,3.57875e-07
17,9,1.49651,1.24346e-06
18,9,1.5192,1.98822e-06
19,9,1.54212,2.6262e-06
20,9,1.56528,3.17414e-06
21,9,1.58867,3.64418e-06
22,9,1.61228,4.04611e-06
23,9,1.6361,4.38811e-06
24,9,1.66014,4.67713e-06
25,9,1.68437,4.91914e-06
26,9,1.70881,5.11932e-06
27,9,1.73343,5.28214e-06
28,9,1.75822,5.41152e-06
29,9,1.78319,5.51086e-06
30,9,1.80832,5.58314e-06
31,9,1.8336,5.63095e-06
32,9,1.85903,5.65657e-06
33,9,1.88458,5.66201e-06
34,9,1.91026,5.64901e-06
35,9,1.93605,5.61911e-06
36,9,1.96193,5.57367e-06
37,9,1.98791,5.51387e-06
38,9,2.01396,5.44074e-06
39,9,2.04007,5.35519e-06
40,9,2.06623,5.258e-06
41,9,2.09243,5.14985e-06
42,9,2.11865,5.03131e-06
43,9,2.14488,4.90289e-06
44,9,2.1711,4.76497e-06
45,9,2.19731,4.61791e-06
46,9,2.22348,4.46194e-06
47,9,2.2496,4.29726e-06
48,9,2.27565,4.12399e-06
49,9,2.30162,3.94218e-06
50,9,2.3275,3.75181e-06
51,9,2.35326,3.5528e-06
52,9,2.37889,3.345e-06
53,9,2.40438,3.12819e-06
54,9,2.4297,2.90207e-06
55,9,2.45484,2.66626e-06
56,9,2.47978,2.42032e-06
57,9,2.5045,2.16367e-06
58,9,2.529,1.89568e-06
59,9,2.55324,1.61559e-06
60,9,2.57721,1.32254e-06
61,9,2.60089,1.01558e-06
62,9,2.62427,6.93622e-07
63,9,2.64733,3.5551e-07
15,10,1.47475,1.4822e-07
16,10,1.49729,1.10291e-06
17,10,1.52008,1.97187e-06
18,10,1.54312,2.72877e-06
19,10,1.56641,3.38268e-06
20,10,1.58993,3.94597e-06
21,10,1.61369,4.4298e-06
22,10,1.63767,4.84368e-06
23,10,1.66187,5.19573e-06
24,10,1.68628,5.49287e-06
25,10,1.7109,5.7411e-06
26,10,1.73572,5.94562e-06
27,10,1.76072,6.11093e-06
28,10,1.78591,6.24098e-06
29,10,1.81127,6.33924e-06
30,10,1.8368,6.40873e-06
31,10,1.86248,6.4521e-06
32,10,1.8883,6.47169e-06
33,10,1.91426,6.46957e-06
34,10,1.94034,6.44753e-06
35,10,1.96654,6.40717e-06
36,10,1.99283,6.34988e-06
37,10,2.01921,6.27691e-06
38,10,2.04567,6.18932e-06
39,10,2.07219,6.08806e-06
40,10,2.09877,5.97395e-06
41,10,2.12538,5.84769e-06
42,10,2.15201,5.70991e-06
43,10,2.17865,5.5611e-06
44,10,2.20529,5.40171e-06
45,10,2.23191,5.23207e-06
46,10,2.25849,5.05248e-06
47,10,2.28502,4.86312e-06
48,10,2.31149,4.66413e-06
49,10,2.33787,4.45557e-06
50,10,2.36415,4.23744e-06
51,10,2.39032,4.00967e-06
52,10,2.41636,3.7721e-06
53,10,2.44224,3.52454e-06
54,10,2.46796,3.26669e-06
55,10,2.4935,2.99819e-06
56,10,2.51883,2.71859e-06
57,10,2.54394,2.42738e-06
58,10,2.56882,2.12392e-06
59,10,2.59344,1.8075e-06
60,10,2.61779,1.47734e-06
61,10,2.64185,1.13253e-06
62,10,2.6656,7.72086e-07
63,10,2.68902,3.94951e-07
15,11,1.49797,9.27037e-07
16,11,1.52087,1.95477e-06
17,11,1.54402,2.83389e-06
18,11,1.56742,3.59431e-06
19,11,1.59108,4.25217e-06
20,11,1.61497,4.82003e-06
21,11,1.6391,5.30845e-06
22,11,1.66346,5.72647e-06
23,11,1.68804,6.08188e-06
24,11,1.71284,6.38138e-06
25,11,1.73784,6.63081e-06
26,11,1.76305,6.83525e-06
27,11,1.78845,6.99918e-06
28,11,1.81404,7.12648e-06
29,11,1.8398,7.22059e-06
30,11,1.86573,7.28454e-06
31,11,1.89181,7.32099e-06
32,11,1.91804,7.3323e-06
33,11,1.94441,7.32054e-06
34,11,1.9709,7.28754e-06
35,11,1.99751,7.23491e-06
36,11,2.02421,7.16409e-06
37,11,2.05101,7.07633e-06
38,11,2.07789,6.97274e-06
39,11,2.10483,6.85428e-06
40,11,2.13182,6.72179e-06
41,11,2.15885,6.576e-06
42,11,2.1859,6.41755e-06
43,11,2.21296,6.24697e-06
44,11,2.24002,6.06471e-06
45,11,2.26706,5.87112e-06
46,11,2.29406,5.6665e-06
47,11,2.32101,5.45107e-06
48,11,2.34789,5.22496e-06
49,11,2.37469,4.98825e-06
50,11,2.40138,4.74095e-06
51,11,2.42796,4.483e-06
52,11,2.45441,4.21426e-06
53,11,2.4807,3.93454e-06
54,11,2.50683,3.64356e-06
55,11,2.53276,3.34099e-06
56,11,2.5585,3.02639e-06
57,11,2.58401,2.69928e-06
58,11,2.60928,2.35906e-06
59,11,2.63429,2.00509e-06
60,11,2.65902,1.6366e-06
61,11,2.68345,1.25278e-06
62,11,2.70758,8.5273e-07
63,11,2.73137,4.35476e-07
14,12,1.49857,8.70864e-07
15,12,1.52156,1.99034e-06
16,12,1.54482,2.97668e-06
17,12,1.56834,3.8365e-06
18,12,1.59211,4.58473e-06
19,12,1.61613,5.23441e-06
20,12,1.6404,5.79663e-06
21,12,1.66491,6.28094e-06
22,12,1.68965,6.69563e-06
23,12,1.71462,7.04794e-06
24,12,1.73981,7.34418e-06
25,12,1.76521,7.58989e-06
26,12,1.79082,7.78994e-06
27,12,1.81662,7.94864e-06
28,12,1.84261,8.06977e-06
29,12,1.86877,8.15669e-06
30,12,1.89511,8.21235e-06
31,12,1.9216,8.23938e-06
32,12,1.94825,8.24012e-06
33,12,1.97503,8.21661e-06
34,12,2.00194,8.17069e-06
35,12,2.02896,8.10398e-06
36,12,2.05609,8.0179e-06
37,12,2.08331,7.91371e-06
38,12,2.11061,7.79253e-06
39,12,2.13797,7.65534e-06
40,12,2.16539,7.50298e-06
41,12,2.19285,7.33621e-06
42,12,2.22032,7.15566e-06
43,12,2.24781,6.96187e-06
44,12,2.2753,6.75531e-06
45,12,2.30276,6.53635e-06
46,12,2.33018,6.30528e-06
47,12,2.35756,6.06234e-06
48,12,2.38486,5.80768e-06
49,12,2.41208,5.54138e-06
50,12,2.4392,5.26347e-06
51,12,2.4662,4.97389e-06
52,12,2.49306,4.67252e-06
53,12,2.51977,4.3592e-06
54,12,2.5463,4.03365e-06
55,12,2.57265,3.69558e-06
56,12,2.59879,3.34457e-06
57,12,2.6247,2.98017e-06
58,12,2.65037,2.60184e-06
59,12,2.67577,2.20896e-06
60,12,2.70089,1.80085e-06
61,12,2.72571,1.37675e-06
62,12,2.75021,9.35835e-07
63,12,2.77438,4.77228e-07
13,13,1.49909,9.59267e-07
14,13,1.52217,2.14832e-06
15,13,1.54552,3.20802e-06
16,13,1.56915,4.14688e-06
17,13,1.59303,4.97295e-06
18,13,1.61718,5.69637e-06
19,13,1.64158,6.3272e-06
20,13,1.66624,6.87461e-06
21,13,1.69113,7.34687e-06
22,13,1.71626,7.75131e-06
23,13,1.74163,8.09446e-06
24,13,1.76721,8.38211e-06
25,13,1.79301,8.6194e-06
26,13,1.81902,8.8109e-06
27,13,1.84523,8.96066e-06
28,13,1.87162,9.07229e-06
29,13,1.8982,9.14901e-06
30,13,1.92495,9.19366e-06
31,13,1.95186,9.2088e-06
32,13,1.97893,9.19669e-06
33,13,2.00613,9.15934e-06
34,13,2.03346,9.09855e-06
35,13,2.06091,9.0159e-06
36,13,2.08847,8.91281e-06
37,13,2.11612,8.79054e-06
38,13,2.14385,8.65018e-06
39,13,2.17164,8.4927e-06
40,13,2.19949,8.31897e-06
41,13,2.22738,8.12973e-06
42,13,2.25529,7.92561e-06
43,13,2.28321,7.70716e-06
44,13,2.31113,7.47485e-06
45,13,2.33902,7.22907e-06
46,13,2.36688,6.9701e-06
47,13,2.39468,6.6982e-06
48,13,2.42242,6.41352e-06
49,13,2.45007,6.11615e-06
50,13,2.47761,5.80614e-06
51,13,2.50503,5.48344e-06
52,13,2.53232,5.14796e-06
53,13,2.55945,4.79953e-06
54,13,2.5864,4.43793e-06
55,13,2.61316,4.06287e-06
56,13,2.63971,3.67397e-06
57,13,2.66603,3.27083e-06
58,13,2.6921,2.85293e-06
59,13,2.71791,2.41972e-06
60,13,2.74342,1.97058e-06
61,13,2.76864,1.50481e-06
62,13,2.79352,1.02166e-06
63,13,2.81807,5.20339e-07
12,14,1.49953,1.2398e-06
13,14,1.5227,2.4692e-06
14,14,1.54614,3.57619e-06
15,14,1.56986,4.56815e-06
16,14,1.59386,5.45198e-06
17,14,1.61812,6.23462e-06
18,14,1.64265,6.92366e-06
19,14,1.66744,7.52686e-06
20,14,1.69248,8.0516e-06
21,14,1.71776,8.50481e-06
22,14,1.74329,8.89278e-06
23,14,1.76905,9.22125e-06
24,14,1.79504,9.4954e-06
25,14,1.82125,9.71989e-06
26,14,1.84767,9.89889e-06
27,14,1.87428,1.00362e-05
28,14,1.9011,1.01351e-05
29,14,1.9281,1.01988e-05
30,14,1.95527,1.02298e-05
31,14,1.9826,1.02306e-05
32,14,2.01009,1.02034e-05
33,14,2.03772,1.01501e-05
34,14,2.06549,1.00725e-05
35,14,2.09337,9.97213e-06
36,14,2.12136,9.8503e-06
37,14,2.14944,9.70827e-06
38,14,2.17761,9.54712e-06
39,14,2.20584,9.36781e-06
40,14,2.23413,9.17118e-06
41,14,2.26246,8.95796e-06
42,14,2.29081,8.72879e-06
43,14,2.31917,8.48421e-06
44,14,2.34752,8.22468e-06
45,14,2.37586,7.95059e-06
46,14,2.40415,7.66225e-06
47,14,2.4324,7.35989e-06
48,14,2.46057,7.04369e-06
49,14,2.48865,6.71375e-06
50,14,2.51663,6.37012e-06
51,14,2.54448,6.01277e-06
52,14,2.5722,5.64163e-06
53,14,2.59975,5.25656e-06
54,14,2.62713,4.85735e-06
55,14,2.65431,4.44375e-06
56,14,2.68128,4.01542e-06
57,14,2.70802,3.57199e-06
58,14,2.7345,3.113e-06
59,14,2.76071,2.63794e-06
60,14,2.78663,2.14626e-06
61,14,2.81224,1.63732e-06
62,14,2.83752,1.11045e-06
63,14,2.86245,5.64934e-07
10,15,1.47697,3.29254e-07
11,15,1.49991,1.76709e-06
12,15,1.52315,2.99941e-06
13,15,1.54668,4.12237e-06
14,15,1.57049,5.14049e-06
15,15,1.59459,6.05834e-06
16,15,1.61896,6.88073e-06
17,15,1.64361,7.61281e-06
18,15,1.66852,8.26021e-06
19,15,1.6937,8.82878e-06
20,15,1.71913,9.32436e-06
21,15,1.74482,9.75255e-06
22,15,1.77075,1.01186e-05
23,15,1.79691,1.04275e-05
24,15,1.82331,1.06837e-05
25,15,1.84993,1.08914e-05
26,15,1.87676,1.10543e-05
27,15,1.9038,1.11758e-05
28,15,1.93104,1.12591e-05
29,15,1.95846,1.13069e-05
30,15,1.98606,1.13217e-05
31,15,2.01383,1.13059e-05
32,15,2.04175,1.12615e-05
33,15,2.06981,1.11903e-05
34,15,2.09802,1.1094e-05
35,15,2.12634,1.0974e-05
36,15,2.15477,1.08317e-05
37,15,2.18329,1.06683e-05
38,15,2.2119,1.04848e-05
39,15,2.24058,1.02821e-05
40,15,2.26931,1.0061e-05
41,15,2.29808,9.82229e-06
42,15,2.32688,9.56657e-06
43,15,2.35569,9.29437e-06
44,15,2.38449,9.00613e-06
45,15,2.41327,8.70225e-06
46,15,2.44201,8.38302e-06
47,15,2.4707,8.04869e-06
48,15,2.49932,7.69944e-06
49,15,2.52784,7.33538e-06
50,15,2.55626,6.95656e-06
51,15,2.58455,6.56299e-06
52,15,2.6127,6.15461e-06
53,15,2.64069,5.73129e-06
54,15,2.6685,5.29287e-06
55,15,2.69611,4.83912e-06
56,15,2.72351,4.36974e-06
57,15,2.75066,3.8844e-06
58,15,2.77756,3.3827e-06
59,15,2.80418,2.86419e-06
60,15,2.83051,2.32835e-06
61,15,2.85652,1.77464e-06
62,15,2.8822,1.20245e-06
63,15,2.90752,6.11131e-07
9,16,1.47722,1.41168e-06
10,16,1.50023,2.59998e-06
11,16,1.52353,3.78842e-06
12,16,1.54714,4.88896e-06
13,16,1.57104,5.90155e-06
14,16,1.59522,6.82678e-06
15,16,1.6197,7.66628e-06
16,16,1.64446,8.4226e-06
17,16,1.66949,9.099e-06
18,16,1.6948,9.69935e-06
19,16,1.72037,1.02279e-05
20,16,1.7462,1.06891e-05
21,16,1.77229,1.10874e-05
22,16,1.79863,1.1427e-05
23,16,1.82521,1.1712e-05
24,16,1.85202,1.19464e-05
25,16,1.87906,1.21337e-05
26,16,1.90632,1.22772e-05
27,16,1.93378,1.23799e-05
28,16,1.96145,1.24447e-05
29,16,1.9893,1.24741e-05
30,16,2.01734,1.24704e-05
31,16,2.04554,1.24358e-05
32,16,2.0739,1.23721e-05
33,16,2.10241,1.2281e-05
34,16,2.13106,1.21641e-05
35,16,2.15982,1.20228e-05
36,16,2.1887,1.18584e-05
37,16,2.21768,1.16719e-05
38,16,2.24674,1.14645e-05
39,16,2.27586,1.12368e-05
40,16,2.30505,1.09898e-05
41,16,2.33427,1.07241e-05
42,16,2.36353,1.04404e-05
43,16,2.39279,1.0139e-05
44,16,2.42204,9.82057e-06
45,16,2.45128,9.48538e-06
46,16,2.48047,9.13373e-06
47,16,2.50961,8.76589e-06
48,16,2.53867,8.38202e-06
49,16,2.56765,7.98225e-06
50,16,2.59652,7.56666e-06
51,16,2.62526,7.13524e-06
52,16,2.65385,6.68797e-06
53,16,2.68228,6.22476e-06
54,16,2.71053,5.74546e-06
55,16,2.73857,5.24987e-06
56,16,2.7664,4.73775e-06
57,16,2.79398,4.20881e-06
58,16,2.8213,3.66269e-06
59,16,2.84834,3.099e-06
60,16,2.87508,2.51731e-06
61,16,2.90151,1.91711e-06
62,16,2.92759,1.29788e-06
63,16,2.95331,6.59048e-07
6,17,1.43224,4.30352e-07
7,17,1.45468,1.67054e-06
8,17,1.47743,2.70618e-06
9,17,1.50049,3.82657e-06
10,17,1.52385,4.89019e-06
11,17,1.54753,5.91792e-06
12,17,1.5715,6.88734e-06
13,17,1.59578,7.78957e-06
14,17,1.62035,8.62086e-06
15,17,1.64521,9.38005e-06
16,17,1.67035,1.00676e-05
17,17,1.69578,1.06849e-05
18,17,1.72149,1.12344e-05
19,17,1.74746,1.1719e-05
20,17,1.7737,1.21418e-05
21,17,1.80021,1.25062e-05
22,17,1.82696,1.28155e-05
23,17,1.85396,1.30732e-05
24,17,1.88119,1.32824e-05
25,17,1.90865,1.34461e-05
26,17,1.93634,1.35673e-05
27,17,1.96424,1.36486e-05
28,17,1.99234,1.36924e-05
29,17,2.02063,1.3701e-05
30,17,2.04911,1.36766e-05
31,17,2.07775,1.3621e-05
32,17,2.10656,1.35361e-05
33,17,2.13552,1.34233e-05
34,17,2.16462,1.32841e-05
35,17,2.19384,1.31198e-05
36,17,2.22317,1.29316e-05
37,17,2.2526,1.27206e-05
38,17,2.28212,1.24876e-05
39,17,2.31171,1.22335e-05
40,17,2.34135,1.1959e-05
41,17,2.37103,1.16648e-05
42,17,2.40075,1.13515e-05
43,17,2.43047,1.10195e-05
44,17,2.46018,1.06694e-05
45,17,2.48988,1.03013e-05
46,17,2.51953,9.91572e-06
47,17,2.54913,9.51279e-06
48,17,2.57865,9.09271e-06
49,17,2.60808,8.65562e-06
50,17,2.63741,8.2016e-06
51,17,2.6666,7.73068e-06
52,17,2.69564,7.24283e-06
53,17,2.72452,6.738e-06
54,17,2.75321,6.21608e-06
55,17,2.7817,5.6769e-06
56,17,2.80996,5.12027e-06
57,17,2.83798,4.54594e-06
58,17,2.86573,3.95361e-06
59,17,2.8932,3.34295e-06
60,17,2.92036,2.71358e-06
61,17,2.9472,2.06508e-06
62,17,2.97369,1.39698e-06
63,17,2.99982,7.08802e-07
1,18,1.34565,4.98049e-07
2,18,1.36683,8.54192e-07
3,18,1.38834,1.4017e-06
4,18,1.41017,2.06285e-06
5,18,1.43232,2.76678e-06
6,18,1.4548,3.54574e-06
7,18,1.47759,4.46519e-06
8,18,1.50069,5.38135e-06
9,18,1.52412,6.31752e-06
10,18,1.54785,7.23621e-06
11,18,1.5719,8.12631e-06
12,18,1.59625,8.97412e-06
13,18,1.62091,9.77037e-06
14,18,1.64586,1.05095e-05
15,18,1.67112,1.11885e-05
16,18,1.69666,1.18062e-05
17,18,1.72249,1.23627e-05
18,18,1.7486,1.2859e-05
19,18,1.77498,1.32968e-05
20,18,1.80164,1.36783e-05
21,18,1.82856,1.40058e-05
22,18,1.85573,1.42819e-05
23,18,1.88315,1.45092e-05
24,18,1.91082,1.46904e-05
25,18,1.93871,1.4828e-05
26,18,1.96683,1.49243e-05
27,18,1.99517,1.49816e-05
28,18,2.02371,1.50022e-05
29,18,2.05245,1.4988e-05
30,18,2.08137,1.49408e-05
31,18,2.11047,1.48624e-05
32,18,2.13974,1.47544e-05
33,18,2.16915,1.46181e-05
34,18,2.1987,1.4455e-05
35,18,2.22838,1.42661e-05
36,18,2.25818,1.40526e-05
37,18,2.28807,1.38154e-05
38,18,2.31806,1.35554e-05
39,18,2.34811,1.32733e-05
40,18,2.37822,1.29699e-05
41,18,2.40837,1.26458e-05
42,18,2.43855,1.23014e-05
43,18,2.46874,1.19373e-05
44,18,2.49893,1.15539e-05
45,18,2.52909,1.11515e-05
46,18,2.55921,1.07303e-05
47,18,2.58927,1.02907e-05
48,18,2.61926,9.83283e-06
49,18,2.64916,9.35676e-06
50,18,2.67894,8.86263e-06
51,18,2.70859,8.35047e-06
52,18,2.73809,7.8203e-06
53,18,2.76743,7.27208e-06
54,18,2.79657,6.70574e-06
55,18,2.8255,6.12114e-06
56,18,2.85421,5.51815e-06
57,18,2.88267,4.89655e-06
58,18,2.91086,4.25612e-06
59,18,2.93876,3.59658e-06
60,18,2.96635,2.91762e-06
61,18,2.99361,2.21888e-06
62,18,3.02052,1.49999e-06
63,18,3.04706,7.60509e-07
1,19,1.36684,4.12152e-06
2,19,1.38836,4.36239e-06
3,19,1.41021,4.76292e-06
4,19,1.43238,5.27758e-06
5,19,1.45488,5.87059e-06
6,19,1.47771,6.5381e-06
7,19,1.50086,7.28134e-06
8,19,1.52433,8.0554e-06
9,19,1.54812,8.84551e-06
10,19,1.57223,9.63108e-06
11,19,1.59666,1.03979e-05
12,19,1.62139,1.1134e-05
13,19,1.64644,1.18305e-05
14,19,1.67179,1.2481e-05
15,19,1.69743,1.30816e-05
16,19,1.72338,1.36299e-05
17,19,1.74961,1.41251e-05
18,19,1.77614,1.4567e-05
19,19,1.80294,1.49563e-05
20,19,1.83001,1.52945e-05
21,19,1.85735,1.55829e-05
22,19,1.88495,1.58235e-05
23,19,1.91281,1.60182e-05
24,19,1.94091,1.61691e-05
25,19,1.96924,1.62782e-05
26,19,1.99781,1.63475e-05
27,19,2.02659,1.6379e-05
28,19,2.05558,1.63743e-05
29,19,2.08477,1.63353e-05
30,19,2.11415,1.62636e-05
31,19,2.14371,1.61606e-05
32,19,2.17343,1.60279e-05
33,19,2.20331,1.58666e-05
34,19,2.23333,1.56779e-05
35,19,2.26348,1.54629e-05
36,19,2.29374,1.52225e-05
37,19,2.32411,1.49577e-05
38,19,2.35456,1.46692e-05
39,19,2.38509,1.43578e-05
40,19,2.41567,1.4024e-05
41,19,2.4463,1.36684e-05
42,19,2.47696,1.32915e-05
43,19,2.50762,1.28938e-05
44,19,2.53828,1.24756e-05
45,19,2.56892,1.20373e-05
46,19,2.59951,1.1579e-05
47,19,2.63005,1.11011e-05
48,19,2.66051,1.06037e-05
49,19,2.69088,1.0087e-05
50,19,2.72113,9.55099e-06
51,19,2.75125,8.99584e-06
52,19,2.78121,8.42155e-06
53,19,2.81101,7.8281e-06
54,19,2.84061,7.21545e-06
55,19,2.87,6.58353e-06
56,19,2.89916,5.93224e-06
57,19,2.92806,5.26142e-06
58,19,2.9567,4.5709e-06
59,19,2.98504,3.86047e-06
60,19,3.01306,3.12989e-06
61,19,3.04075,2.37888e-06
62,19,3.06809,1.60712e-06
63,19,3.09504,8.14287e-07
1,20,1.38837,7.55763e-06
2,20,1.41023,7.72576e-06
3,20,1.43242,8.02556e-06
4,20,1.45494,8.43027e-06
5,20,1.4778,8.91693e-06
6,20,1.50098,9.47249e-06
7,20,1.5245,1.00851e-05
8,20,1.54834,1.07326e-05
9,20,1.5725,1.13979e-05
10,20,1.59699,1.20653e-05
11,20,1.6218,1.27214e-05
12,20,1.64693,1.33555e-05
13,20,1.67237,1.3959e-05
14,20,1.69811,1.45256e-05
15,20,1.72417,1.50506e-05
16,20,1.75052,1.55312e-05
17,20,1.77717,1.59655e-05
18,20,1.80411,1.63528e-05
19,20,1.83133,1.66929e-05
20,20,1.85883,1.69865e-05
21,20,1.8866,1.72344e-05
22,20,1.91464,1.74379e-05
23,20,1.94293,1.75982e-05
24,20,1.97147,1.77171e-05
25,20,2.00026,1.7796e-05
26,20,2.02927,1.78365e-05
27,20,2.05851,1.78402e-05
28,20,2.08795,1.78086e-05
29,20,2.1176,1.77432e-05
30,20,2.14745,1.76453e-05
31,20,2.17747,1.75163e-05
32,20,2.20766,1.73573e-05
33,20,2.23801,1.71694e-05
34,20,2.2685,1.69537e-05
35,20,2.29912,1.67112e-05
36,20,2.32986,1.64426e-05
37,20,2.36071,1.61487e-05
38,20,2.39164,1.58304e-05
39,20,2.42265,1.54881e-05
40,20,2.45372,1.51225e-05
41,20,2.48483,1.47341e-05
42,20,2.51596,1.43232e-05
43,20,2.54711,1.38904e-05
44,20,2.57825,1.34359e-05
45,20,2.60937,1.29601e-05
46,20,2.64045,1.24631e-05
47,20,2.67147,1.19453e-05
48,20,2.70241,1.14067e-05
49,20,2.73325,1.08476e-05
50,20,2.76398,1.0268e-05
51,20,2.79457,9.66804e-06
52,20,2.82501,9.04775e-06
53,20,2.85527,8.40717e-06
54,20,2.88534,7.74628e-06
55,20,2.9152,7.06505e-06
56,20,2.94481,6.36343e-06
57,20,2.97418,5.64133e-06
58,20,3.00326,4.89864e-06
59,20,3.03205,4.13521e-06
60,20,3.06051,3.35087e-06
61,20,3.08864,2.54542e-06
62,20,3.1164,1.71864e-06
63,20,3.14378,8.7026e-07
1,21,1.41024,1.08544e-05
2,21,1.43244,1.09725e-05
3,21,1.45498,1.11991e-05
4,21,1.47786,1.15176e-05
5,21,1.50107,1.19117e-05
6,21,1.52462,1.23678e-05
7,21,1.54851,1.28729e-05
8,21,1.57272,1.34113e-05
9,21,1.59727,1.39686e-05
10,21,1.62214,1.45315e-05
11,21,1.64734,1.50885e-05
12,21,1.67286,1.56298e-05
13,21,1.6987,1.61474e-05
14,21,1.72486,1.66351e-05
15,21,1.75132,1.70882e-05
16,21,1.77809,1.75033e-05
17,21,1.80516,1.78782e-05
18,21,1.83252,1.82114e-05
19,21,1.86017,1.85023e-05
20,21,1.8881,1.87508e-05
21,21,1.91631,1.89574e-05
22,21,1.94479,1.91226e-05
23,21,1.97353,1.92474e-05
24,21,2.00252,1.93329e-05
25,21,2.03176,1.93802e-05
26,21,2.06123,1.93905e-05
27,21,2.09092,1.93651e-05
28,21,2.12084,1.93051e-05
29,21,2.15095,1.92119e-05
30,21,2.18127,1.90864e-05
31,21,2.21176,1.89299e-05
32,21,2.24243,1.87433e-05
33,21,2.27325,1.85275e-05
34,21,2.30422,1.82835e-05
35,21,2.33533,1.80121e-05
36,21,2.36655,1.77139e-05
37,21,2.39788,1.73898e-05
38,21,2.4293,1.70402e-05
39,21,2.4608,1.66658e-05
40,21,2.49236,1.6267e-05
41,21,2.52396,1.58443e-05
42,21,2.55558,1.53981e-05
43,21,2.58722,1.49286e-05
44,21,2.61886,1.44363e-05
45,21,2.65046,1.39215e-05
46,21,2.68203,1.33842e-05
47,21,2.71354,1.28247e-05
48,21,2.74496,1.22433e-05
49,21,2.77629,1.164e-05
50,21,2.80751,1.1015e-05
51,21,2.83858,1.03684e-05
52,21,2.8695,9.70016e-06
53,21,2.90024,9.01046e-06
54,21,2.93078,8.2993e-06
55,21,2.9611,7.5667e-06
56,21,2.99119,6.81264e-06
57,21,3.02101,6.03711e-06
58,21,3.05055,5.24005e-06
59,21,3.07979,4.42139e-06
60,21,3.10871,3.58105e-06
61,21,3.13728,2.71889e-06
62,21,3.16548,1.83478e-06
63,21,3.19329,9.28552e-07
1,22,1.43245,1.40449e-05
2,22,1.455,1.41261e-05
3,22,1.47789,1.42968e-05
4,22,1.50113,1.4546e-05
5,22,1.52471,1.48619e-05
6,22,1.54863,1.52326e-05
7,22,1.57289,1.56464e-05
8,22,1.59749,1.60909e-05
9,22,1.62243,1.65542e-05
10,22,1.64769,1.70249e-05
11,22,1.67329,1.74932e-05
12,22,1.69921,1.79503e-05
13,22,1.72546,1.8389e-05
14,22,1.75202,1.88032e-05
15,22,1.7789,1.91883e-05
16,22,1.80609,1.95408e-05
17,22,1.83359,1.98581e-05
18,22,1.86138,2.01384e-05
19,22,1.88947,2.03806e-05
20,22,1.91784,2.05842e-05
21,22,1.94649,2.07491e-05
22,22,1.97542,2.08756e-05
23,22,2.00461,2.0964e-05
24,22,2.03406,2.10152e-05
25,22,2.06375,2.10298e-05
26,22,2.09369,2.10089e-05
27,22,2.12385,2.09532e-05
28,22,2.15424,2.08637e-05
29,22,2.18483,2.07415e-05
30,22,2.21562,2.05873e-05
31,22,2.24659,2.04021e-05
32,22,2.27774,2.01866e-05
33,22,2.30905,1.99418e-05
34,22,2.34051,1.96683e-05
35,22,2.37211,1.93667e-05
36,22,2.40382,1.90378e-05
37,22,2.43565,1.86821e-05
38,22,2.46756,1.83e-05
39,22,2.49955,1.78922e-05
40,22,2.53161,1.74589e-05
41,22,2.5637,1.70005e-05
42,22,2.59583,1.65175e-05
43,22,2.62797,1.601e-05
44,22,2.6601,1.54784e-05
45,22,2.6922,1.49229e-05
46,22,2.72427,1.43437e-05
47,22,2.75627,1.3741e-05
48,22,2.78819,1.3115e-05
49,22,2.82001,1.24657e-05
50,22,2.85172,1.17934e-05
51,22,2.88328,1.10982e-05
52,22,2.91469,1.03801e-05
53,22,2.94591,9.63921e-06
54,22,2.97693,8.87568e-06
55,22,3.00774,8.08954e-06
56,22,3.03829,7.28083e-06
57,22,3.06859,6.44961e-06
58,22,3.09859,5.59588e-06
59,22,3.12829,4.71966e-06
60,22,3.15766,3.82094e-06
61,22,3.18668,2.89967e-06
62,22,3.21533,1.95582e-06
63,22,3.24358,9.89295e-07
1,23,1.45501,1.71532e-05
2,23,1.47791,1.72058e-05
3,23,1.50117,1.73323e-05
4,23,1.52477,1.7525e-05
5,23,1.54873,1.77751e-05
6,23,1.57302,1.80729e-05
7,23,1.59767,1.84086e-05
8,23,1.62265,1.8772e-05
9,23,1.64798,1.91531e-05
10,23,1.67364,1.95424e-05
11,23,1.69964,1.99314e-05
12,23,1.72597,2.03123e-05
13,23,1.75263,2.06785e-05
14,23,1.77961,2.10246e-05
15,23,1.80692,2.13459e-05
16,23,1.83453,2.16389e-05
17,23,1.86246,2.1901e-05
18,23,1.89069,2.21299e-05
19,23,1.91922,2.23245e-05
20,23,1.94804,2.24837e-05
21,23,1.97715,2.26072e-05
22,23,2.00653,2.26947e-05
23,23,2.03618,2.27465e-05
24,23,2.06609,2.27628e-05
25,23,2.09625,2.27441e-05
26,23,2.12666,2.26911e-05
27,23,2.1573,2.26043e-05
28,23,2.18816,2.24844e-05
29,23,2.21923,2.23322e-05
30,23,2.25051,2.21483e-05
31,23,2.28197,2.19333e-05
32,23,2.31361,2.16881e-05
33,23,2.34542,2.14131e-05
34,23,2.37737,2.1109e-05
35,23,2.40946,2.07763e-05
36,23,2.44168,2.04154e-05
37,23,2.474,2.0027e-05
38,23,2.50642,1.96112e-05
39,23,2.53892,1.91687e-05
40,23,2.57147,1.86996e-05
41,23,2.60408,1.82043e-05
42,23,2.63671,1.7683e-05
43,23,2.66935,1.71361e-05
44,23,2.70199,1.65637e-05
45,23,2.7346,1.59661e-05
46,23,2.76717,1.53433e-05
47,23,2.79968,1.46956e-05
48,23,2.8321,1.40232e-05
49,23,2.86442,1.33262e-05
50,23,2.89663,1.26047e-05
51,23,2.92869,1.18588e-05
52,23,2.96059,1.10888e-05
53,23,2.9923,1.02947e-05
54,23,3.02381,9.47659e-06
55,23,3.0551,8.63467e-06
56,23,3.08614,7.76901e-06
57,23,3.11691,6.87973e-06
58,23,3.14739,5.96693e-06
59,23,3.17756,5.03068e-06
60,23,3.20739,4.07108e-06
61,23,3.23686,3.08818e-06
62,23,3.26596,2.08202e-06
63,23,3.29466,1.05263e-06
1,24,1.47792,2.01978e-05
2,24,1.50119,2.02275e-05
3,24,1.52481,2.0318e-05
4,24,1.54879,2.0464e-05
5,24,1.57312,2.06586e-05
6,24,1.5978,2.08942e-05
7,24,1.62283,2.11627e-05
8,24,1.64821,2.14557e-05
9,24,1.67393,2.17648e-05
10,24,1.7,2.20821e-05
11,24,1.72641,2.24002e-05
12,24,1.75315,2.27122e-05
13,24,1.78023,2.30123e-05
14,24,1.80764,2.32953e-05
15,24,1.83537,2.3557e-05
16,24,1.86343,2.3794e-05
17,24,1.89179,2.40033e-05
18,24,1.92047,2.41829e-05
19,24,1.94945,2.43311e-05
20,24,1.97872,2.44469e-05
21,24,2.00828,2.45294e-05
22,24,2.03813,2.45782e-05
23,24,2.06825,2.45933e-05
24,24,2.09863,2.45746e-05
25,24,2.12927,2.45222e-05
26,24,2.16015,2.44366e-05
27,24,2.19127,2.43181e-05
28,24,2.22262,2.41671e-05
29,24,2.25418,2.39842e-05
30,24,2.28595,2.37698e-05
31,24,2.31791,2.35243e-05
32,24,2.35005,2.32484e-05
33,24,2.38235,2.29423e-05
34,24,2.41481,2.26067e-05
35,24,2.44741,2.22418e-05
36,24,2.48013,2.1848e-05
37,24,2.51296,2.14257e-05
38,24,2.54589,2.09752e-05
39,24,2.5789,2.04968e-05
40,24,2.61197,1.99907e-05
41,24,2.64509,1.94572e-05
42,24,2.67823,1.88964e-05
43,24,2.71139,1.83086e-05
44,24,2.74454,1.76939e-05
45,24,2.77767,1.70526e-05
46,24,2.81075,1.63846e-05
47,24,2.84377,1.56903e-05
48,24,2.8767,1.49697e-05
49,24,2.90953,1.4223e-05
50,24,2.94224,1.34504e-05
51,24,2.97481,1.26519e-05
52,24,3.00721,1.18278e-05
53,24,3.03942,1.09782e-05
54,24,3.07143,1.01033e-05
55,24,3.10321,9.20325e-06
56,24,3.13474,8.27823e-06
57,24,3.16599,7.32842e-06
58,24,3.19695,6.354e-06
59,24,3.2276,5.35515e-06
60,24,3.2579,4.33204e-06
61,24,3.28784,3.28483e-06
62,24,3.31739,2.21367e-06
63,24,3.34654,1.11869e-06
1,25,1.5012,2.31936e-05
2,25,1.52483,2.32044e-05
3,25,1.54883,2.32652e-05
4,25,1.57318,2.3372e-05
5,25,1.59789,2.35195e-05
6,25,1.62296,2.37019e-05
7,25,1.64839,2.39123e-05
8,25,1.67416,2.4144e-05
9,25,1.70029,2.439e-05
10,25,1.72677,2.46434e-05
11,25,1.7536,2.4898e-05
12,25,1.78076,2.51477e-05
13,25,1.80827,2.53874e-05
14,25,1.83611,2.56124e-05
15,25,1.86428,2.58186e-05
16,25,1.89277,2.60028e-05
17,25,1.92159,2.61622e-05
18,25,1.95071,2.62945e-05
19,25,1.98015,2.63981e-05
20,25,2.00988,2.64716e-05
21,25,2.03991,2.6514e-05
22,25,2.07023,2.65247e-05
23,25,2.10082,2.65033e-05
24,25,2.13168,2.64496e-05
25,25,2.1628,2.63635e-05
26,25,2.19417,2.62451e-05
27,25,2.22578,2.60945e-05
28,25,2.25762,2.5912e-05
29,25,2.28968,2.56978e-05
30,25,2.32195,2.54523e-05
31,25,2.35441,2.51757e-05
32,25,2.38706,2.48683e-05
33,25,2.41987,2.45305e-05
34,25,2.45284,2.41624e-05
35,25,2.48595,2.37645e-05
36,25,2.51919,2.33369e-05
37,25,2.55254,2.28798e-05
38,25,2.58599,2.23935e-05
39,25,2.61951,2.18781e-05
40,25,2.6531,2.13339e-05
41,25,2.68674,2.07609e-05
42,25,2.72041,2.01593e-05
43,25,2.75409,1.95292e-05
44,25,2.78776,1.88708e-05
45,25,2.82141,1.81842e-05
46,25,2.85501,1.74694e-05
47,25,2.88855,1.67267e-05
48,25,2.922,1.59562e-05
49,25,2.95535,1.51579e-05
50,25,2.98858,1.43321e-05
51,25,3.02166,1.34789e-05
52,25,3.05457,1.25986e-05
53,25,3.08729,1.16913e-05
54,25,3.1198,1.07572e-05
55,25,3.15208,9.79653e-06
56,25,3.18411,8.80962e-06
57,25,3.21585,7.79669e-06
58,25,3.2473,6.75799e-06
59,25,3.27842,5.69382e-06
60,25,3.3092,4.60443e-06
61,25,3.33961,3.4901e-06
62,25,3.36963,2.35109e-06
63,25,3.39924,1.18765e-06
1,26,1.52484,2.61528e-05
2,26,1.54885,2.61478e-05
3,26,1.57322,2.61835e-05
4,26,1.59796,2.6257e-05
5,26,1.62306,2.63644e-05
6,26,1.64852,2.65009e-05
7,26,1.67435,2.6661e-05
8,26,1.70053,2.68391e-05
9,26,1.72707,2.70294e-05
10,26,1.75397,2.72261e-05
11,26,1.78121,2.74238e-05
12,26,1.80881,2.76174e-05
13,26,1.83675,2.7802e-05
14,26,1.86503,2.79735e-05
15,26,1.89364,2.81283e-05
16,26,1.92258,2.82631e-05
17,26,1.95185,2.83754e-05
18,26,1.98143,2.84627e-05
19,26,2.01133,2.85235e-05
20,26,2.04154,2.85561e-05
21,26,2.07204,2.85595e-05
22,26,2.10283,2.85329e-05
23,26,2.1339,2.84756e-05
24,26,2.16525,2.83872e-05
25,26,2.19686,2.82675e-05
26,26,2.22873,2.81162e-05
27,26,2.26083,2.79335e-05
28,26,2.29318,2.77192e-05
29,26,2.32574,2.74735e-05
30,26,2.35852,2.71964e-05
31,26,2.39149,2.68881e-05
32,26,2.42465,2.65488e-05
33,26,2.45798,2.61785e-05
34,26,2.49147,2.57774e-05
35,26,2.5251,2.53457e-05
36,26,2.55886,2.48834e-05
37,26,2.59274,2.43906e-05
38,26,2.62671,2.38676e-05
39,26,2.66077,2.33142e-05
40,26,2.69489,2.27307e-05
41,26,2.72905,2.21171e-05
42,26,2.76325,2.14734e-05
43,26,2.79746,2.07997e-05
44,26,2.83166,2.00962e-05
45,26,2.86584,1.93627e-05
46,26,2.89997,1.85996e-05
47,26,2.93404,1.78067e-05
48,26,2.96802,1.69843e-05
49,26,3.00189,1.61326e-05
50,26,3.03564,1.52516e-05
51,26,3.06924,1.43416e-05
52,26,3.10267,1.34027e-05
53,26,3.13591,1.24353e-05
54,26,3.16893,1.14396e-05
55,26,3.20172,1.04158e-05
56,26,3.23425,9.36438e-06
57,26,3.26649,8.2856e-06
58,26,3.29844,7.17984e-06
59,26,3.33005,6.04747e-06
60,26,3.36132,4.88888e-06
61,26,3.39221,3.70446e-06
62,26,3.4227,2.49459e-06
63,26,3.45277,1.25965e-06
1,27,1.54886,2.90854e-05
2,27,1.57324,2.90669e-05
3,27,1.598,2.90813e-05
4,27,1.62312,2.91264e-05
5,27,1.64862,2.91993e-05
6,27,1.67448,2.92961e-05
7,27,1.70072,2.94123e-05
8,27,1.72731,2.95435e-05
9,27,1.75427,2.96846e-05
10,27,1.78159,2.98309e-05
11,27,1.80927,2.99776e-05
12,27,1.8373,3.01203e-05
13,27,1.86567,3.02548e-05
14,27,1.8944,3.03773e-05
15,27,1.92346,3.04844e-05
16,27,1.95286,3.05732e-05
17,27,1.98259,3.06411e-05
18,27,2.01264,3.06858e-05
19,27,2.04301,3.07057e-05
20,27,2.07369,3.0699e-05
21,27,2.10467,3.06647e-05
22,27,2.13595,3.06017e-05
23,27,2.16751,3.05093e-05
24,27,2.19935,3.03868e-05
25,27,2.23146,3.02338e-05
26,27,2.26382,3.00499e-05
27,27,2.29644,2.9835e-05
28,27,2.32929,2.95889e-05
29,27,2.36237,2.93115e-05
30,27,2.39566,2.90026e-05
31,27,2.42915,2.86624e-05
32,27,2.46283,2.82906e-05
33,27,2.49669,2.78874e-05
34,27,2.5307,2.74528e-05
35,27,2.56487,2.69866e-05
36,27,2.59916,2.64889e-05
37,27,2.63357,2.59598e-05
38,27,2.66808,2.53991e-05
39,27,2.70267,2.48069e-05
40,27,2.73732,2.41831e-05
41,27,2.77203,2.35277e-05
42,27,2.80677,2.28407e-05
43,27,2.84151,2.21221e-05
44,27,2.87626,2.13719e-05
45,27,2.91097,2.05902e-05
46,27,2.94564,1.9777e-05
47,27,2.98024,1.89323e-05
48,27,3.01476,1.80562e-05
49,27,3.04917,1.7149e-05
50,27,3.08345,1.62107e-05
51,27,3.11757,1.52416e-05
52,27,3.15153,1.42419e-05
53,27,3.18529,1.3212e-05
54,27,3.21884,1.2152e-05
55,27,3.25214,1.10625e-05
56,27,3.28518,9.94377e-06
57,27,3.31794,8.7963e-06
58,27,3.35038,7.62053e-06
59,27,3.38249,6.41696e-06
60,27,3.41425,5.18609e-06
61,27,3.44563,3.92844e-06
62,27,3.4766,2.64454e-06
63,27,3.50714,1.33489e-06
1,28,1.57325,3.20001e-05
2,28,1.59802,3.19699e-05
3,28,1.62316,3.19659e-05
4,28,1.64869,3.19866e-05
5,28,1.67458,3.20296e-05
6,28,1.70086,3.20918e-05
7,28,1.7275,3.21697e-05
8,28,1.75452,3.22595e-05
9,28,1.7819,3.23572e-05
10,28,1.80965,3.24585e-05
11,28,1.83776,3.25595e-05
12,28,1.86623,3.26562e-05
13,28,1.89506,3.27451e-05
14,28,1.92423,3.28226e-05
15,28,1.95375,3.28857e-05
16,28,1.98361,3.29317e-05
17,28,2.01381,3.2958e-05
18,28,2.04434,3.29625e-05
19,28,2.07518,3.29435e-05
20,28,2.10634,3.28993e-05
21,28,2.13781,3.28287e-05
22,28,2.16958,3.27305e-05
23,28,2.20164,3.26038e-05
24,28,2.23399,3.24479e-05
25,28,2.2666,3.22622e-05
26,28,2.29948,3.20462e-05
27,28,2.3326,3.17994e-05
28,28,2.36597,3.15216e-05
29,28,2.39957,3.12125e-05
30,28,2.43339,3.08718e-05
31,28,2.46741,3.04994e-05
32,28,2.50162,3.0095e-05
33,28,2.53601,2.96585e-05
34,28,2.57056,2.91898e-05
35,28,2.60526,2.86887e-05
36,28,2.64009,2.81551e-05
37,28,2.67504,2.75888e-05
38,28,2.71009,2.69898e-05
39,28,2.74523,2.63578e-05
40,28,2.78043,2.56927e-05
41,28,2.81568,2.49946e-05
42,28,2.85097,2.42631e-05
43,28,2.88626,2.34984e-05
44,28,2.92155,2.27002e-05
45,28,2.95681,2.18687e-05
46,28,2.99203,2.10037e-05
47,28,3.02718,2.01054e-05
48,28,3.06223,1.91738e-05
49,28,3.09718,1.82091e-05
50,28,3.132,1.72114e-05
51,28,3.16667,1.61809e-05
52,28,3.20116,1.5118e-05
53,28,3.23545,1.40229e-05
54,28,3.26953,1.28962e-05
55,28,3.30335,1.17381e-05
56,28,3.33691,1.05492e-05
57,28,3.37019,9.33001e-06
58,28,3.40314,8.08114e-06
59,28,3.43576,6.80319e-06
60,28,3.46802,5.49679e-06
61,28,3.49989,4.1626e-06
62,28,3.53135,2.8013e-06
63,28,3.56237,1.41354e-06
1,29,1.59803,3.49041e-05
2,29,1.62319,3.48637e-05
3,29,1.64873,3.48438e-05
4,29,1.67465,3.48433e-05
5,29,1.70096,3.48602e-05
6,29,1.72764,3.48922e-05
7,29,1.75471,3.49365e-05
8,29,1.78215,3.49899e-05
9,29,1.80996,3.50489e-05
10,29,1.83815,3.51101e-05
11,29,1.8667,3.517e-05
12,29,1.89562,3.52253e-05
13,29,1.9249,3.52726e-05
14,29,1.95454,3.5309e-05
15,29,1.98452,3.53315e-05
16,29,2.01485,3.53377e-05
17,29,2.04553,3.53252e-05
18,29,2.07653,3.5292e-05
19,29,2.10786,3.52362e-05
20,29,2.13952,3.51563e-05
21,29,2.17148,3.50508e-05
22,29,2.20375,3.49187e-05
23,29,2.23632,3.47589e-05
24,29,2.26917,3.45705e-05
25,29,2.30229,3.43528e-05
26,29,2.33569,3.41051e-05
27,29,2.36934,3.38269e-05
28,29,2.40323,3.35177e-05
29,29,2.43736,3.31771e-05
30,29,2.47171,3.28046e-05
31,29,2.50626,3.24e-05
32,29,2.54101,3.19629e-05
33,29,2.57594,3.1493e-05
34,29,2.61104,3.099e-05
35,29,2.64629,3.04536e-05
36,29,2.68167,2.98835e-05
37,29,2.71717,2.92795e-05
38,29,2.75277,2.86414e-05
39,29,2.78846,2.79689e-05
40,29,2.82422,2.72617e-05
41,29,2.86003,2.65198e-05
42,29,2.89587,2.57428e-05
43,29,2.93172,2.49306e-05
44,29,2.96756,2.40831e-05
45,29,3.00338,2.32003e-05
46,29,3.03915,2.2282e-05
47,29,3.07485,2.13283e-05
48,29,3.11046,2.03393e-05
49,29,3.14596,1.9315e-05
50,29,3.18133,1.82557e-05
51,29,3.21654,1.71615e-05
52,29,3.25157,1.60329e-05
53,29,3.2864,1.48701e-05
54,29,3.32101,1.36737e-05
55,29,3.35537,1.24442e-05
56,29,3.38946,1.11821e-05
57,29,3.42326,9.88807e-06
58,29,3.45673,8.56284e-06
59,29,3.48987,7.20715e-06
60,29,3.52263,5.82178e-06
61,29,3.555,4.40755e-06
62,29,3.58696,2.96528e-06
63,29,3.61847,1.49582e-06
1,30,1.6232,3.78037e-05
2,30,1.64875,3.77544e-05
3,30,1.67469,3.77206e-05
4,30,1.70103,3.77015e-05
5,30,1.72775,3.76957e-05
6,30,1.75485,3.77012e-05
7,30,1.78234,3.77159e-05
8,30,1.81021,3.7737e-05
9,30,1.83847,3.77617e-05
10,30,1.8671,3.77871e-05
11,30,1.8961,3.78101e-05
12,30,1.92548,3.78279e-05
13,30,1.95522,3.78375e-05
14,30,1.98532,3.78362e-05
15,30,2.01578,3.78214e-05
16,30,2.04658,3.77908e-05
17,30,2.07774,3.77422e-05
18,30,2.10923,3.76735e-05
19,30,2.14106,3.75831e-05
20,30,2.17321,3.74693e-05
21,30,2.20568,3.73307e-05
22,30,2.23846,3.71661e-05
23,30,2.27153,3.69744e-05
24,30,2.3049,3.67545e-05
25,30,2.33855,3.65057e-05
26,30,2.37247,3.62271e-05
27,30,2.40665,3.5918e-05
28,30,2.44108,3.55779e-05
29,30,2.47575,3.52061e-05
30,30,2.51063,3.48021e-05
31,30,2.54573,3.43654e-05
32,30,2.58103,3.38956e-05
33,30,2.61651,3.33921e-05
34,30,2.65216,3.28546e-05
35,30,2.68796,3.22827e-05
36,30,2.7239,3.16758e-05
37,30,2.75996,3.10337e-05
38,30,2.79612,3.0356e-05
39,30,2.83237,2.96422e-05
40,30,2.8687,2.88922e-05
41,30,2.90507,2.81055e-05
42,30,2.94147,2.72818e-05
43,30,2.97789,2.64211e-05
44,30,3.01429,2.5523e-05
45,30,3.05067,2.45874e-05
46,30,3.08701,2.36142e-05
47,30,3.12327,2.26033e-05
48,30,3.15944,2.15549e-05
49,30,3.1955,2.0469e-05
50,30,3.23143,1.93458e-05
51,30,3.26719,1.81856e-05
52,30,3.30278,1.69887e-05
53,30,3.33816,1.57555e-05
54,30,3.37331,1.44866e-05
55,30,3.40821,1.31825e-05
56,30,3.44284,1.18441e-05
57,30,3.47717,1.04719e-05
58,30,3.51117,9.06688e-06
59,30,3.54482,7.62991e-06
60,30,3.5781,6.16193e-06
61,30,3.61098,4.66394e-06
62,30,3.64344,3.13693e-06
63,30,3.67545,1.58195e-06
1,31,1.64876,4.07044e-05
2,31,1.67472,4.06472e-05
3,31,1.70107,4.06012e-05
4,31,1.72782,4.05658e-05
5,31,1.75496,4.05399e-05
6,31,1.78249,4.05222e-05
7,31,1.81041,4.05107e-05
8,31,1.83872,4.05032e-05
9,31,1.86742,4.04974e-05
10,31,1.8965,4.04907e-05
11,31,1.92596,4.04807e-05
12,31,1.9558,4.04646e-05
13,31,1.98601,4.044e-05
14,31,2.01658,4.04043e-05
15,31,2.04752,4.03553e-05
16,31,2.07882,4.02908e-05
17,31,2.11046,4.02086e-05
18,31,2.14245,4.01069e-05
19,31,2.17478,3.9984e-05
20,31,2.20744,3.98382e-05
21,31,2.24042,3.96682e-05
22,31,2.27371,3.94726e-05
23,31,2.30731,3.92503e-05
24,31,2.3412,3.90001e-05
25,31,2.37538,3.87211e-05
26,31,2.40983,3.84125e-05
27,31,2.44455,3.80733e-05
28,31,2.47952,3.77028e-05
29,31,2.51473,3.73004e-05
30,31,2.55017,3.68652e-05
31,31,2.58582,3.63968e-05
32,31,2.62168,3.58944e-05
33,31,2.65772,3.53575e-05
34,31,2.69393,3.47855e-05
35,31,2.73029,3.41778e-05
36,31,2.7668,3.35339e-05
37,31,2.80342,3.28533e-05
38,31,2.84016,3.21354e-05
39,31,2.87698,3.13799e-05
40,31,2.91387,3.05862e-05
41,31,2.95082,2.97539e-05
42,31,2.98779,2.88827e-05
43,31,3.02478,2.79723e-05
44,31,3.06176,2.70222e-05
45,31,3.09872,2.60324e-05
46,31,3.13562,2.50027e-05
47,31,3.17246,2.3933e-05
48,31,3.2092,2.28233e-05
49,31,3.24582,2.16736e-05
50,31,3.28231,2.04843e-05
51,31,3.31864,1.92555e-05
52,31,3.35479,1.79876e-05
53,31,3.39073,1.66812e-05
54,31,3.42643,1.53367e-05
55,31,3.46189,1.3955e-05
56,31,3.49706,1.25368e-05
57,31,3.53193,1.1083e-05
58,31,3.56646,9.59461e-06
59,31,3.60065,8.07262e-06
60,31,3.63445,6.51819e-06
61,31,3.66785,4.93249e-06
62,31,3.70082,3.31673e-06
63,31,3.73333,1.67216e-06
1,32,1.67473,4.36109e-05
2,32,1.70109,4.35467e-05
3,32,1.72786,4.34899e-05
4,32,1.75503,4.34401e-05
5,32,1.78259,4.33967e-05
6,32,1.81056,4.33584e-05
7,32,1.83892,4.33237e-05
8,32,1.86768,4.32909e-05
9,32,1.89683,4.32579e-05
10,32,1.92637,4.32227e-05
11,32,1.95629,4.31829e-05
12,32,1.9866,4.31363e-05
13,32,2.01728,4.30806e-05
14,32,2.04834,4.30137e-05
15,32,2.07977,4.29334e-05
16,32,2.11155,4.28376e-05
17,32,2.1437,4.27245e-05
18,32,2.17619,4.25921e-05
19,32,2.20903,4.24388e-05
20,32,2.2422,4.2263e-05
21,32,2.2757,4.20633e-05
22,32,2.30952,4.18383e-05
23,32,2.34364,4.15868e-05
24,32,2.37807,4.13076e-05
25,32,2.41279,4.09996e-05
26,32,2.44779,4.06619e-05
27,32,2.48305,4.02935e-05
28,32,2.51857,3.98934e-05
29,32,2.55434,3.94609e-05
30,32,2.59033,3.89952e-05
31,32,2.62655,3.84954e-05
32,32,2.66296,3.79607e-05
33,32,2.69957,3.73905e-05
34,32,2.73635,3.67841e-05
35,32,2.77329,3.61407e-05
36,32,2.81037,3.54596e-05
37,32,2.84757,3.47403e-05
38,32,2.88488,3.3982e-05
39,32,2.92229,3.31841e-05
40,32,2.95976,3.23462e-05
41,32,2.99729,3.14676e-05
42,32,3.03484,3.05479e-05
43,32,3.07242,2.95867e-05
44,32,3.10998,2.85835e-05
45,32,3.14752,2.75382e-05
46,32,3.185,2.64503e-05
47,32,3.22242,2.532e-05
48,32,3.25974,2.4147e-05
49,32,3.29694,2.29315e-05
50,32,3.334,2.16736e-05
51,32,3.37091,2.03737e-05
52,32,3.40762,1.90321e-05
53,32,3.44412,1.76495e-05
54,32,3.48039,1.62264e-05
55,32,3.5164,1.47637e-05
56,32,3.55213,1.32623e-05
57,32,3.58755,1.17232e-05
58,32,3.62263,1.01475e-05
59,32,3.65735,8.53654e-06
60,32,3.69168,6.89156e-06
61,32,3.72561,5.21397e-06
62,32,3.7591,3.5052e-06
63,32,3.79213,1.76672e-06
1,33,1.7011,4.65274e-05
2,33,1.72788,4.64569e-05
3,33,1.75507,4.63905e-05
4,33,1.78267,4.63282e-05
5,33,1.81067,4.62692e-05
6,33,1.83908,4.62127e-05
7,33,1.86788,4.61576e-05
8,33,1.8971,4.61023e-05
9,33,1.9267,4.60452e-05
10,33,1.95671,4.59843e-05
11,33,1.9871,4.59179e-05
12,33,2.01789,4.58439e-05
13,33,2.04905,4.57602e-05
14,33,2.0806,4.56649e-05
15,33,2.11252,4.5556e-05
16,33,2.14481,4.54316e-05
17,33,2.17746,4.52899e-05
18,33,2.21046,4.51291e-05
19,33,2.24382,4.49476e-05
20,33,2.27751,4.47438e-05
21,33,2.31154,4.45162e-05
22,33,2.34589,4.42635e-05
23,33,2.38055,4.39843e-05
24,33,2.41552,4.36775e-05
25,33,2.45079,4.33418e-05
26,33,2.48633,4.29761e-05
27,33,2.52215,4.25794e-05
28,33,2.55824,4.21507e-05
29,33,2.59456,4.16889e-05
30,33,2.63113,4.11932e-05
31,33,2.66791,4.06625e-05
32,33,2.7049,4.00961e-05
33,33,2.74208,3.9493e-05
34,33,2.77944,3.88524e-05
35,33,2.81696,3.81734e-05
36,33,2.85463,3.74551e-05
37,33,2.89242,3.66969e-05
38,33,2.93032,3.58979e-05
39,33,2.96831,3.50574e-05
40,33,3.00637,3.41747e-05
41,33,3.04449,3.32492e-05
42,33,3.08264,3.22801e-05
43,33,3.1208,3.12671e-05
44,33,3.15896,3.02097e-05
45,33,3.19708,2.91073e-05
46,33,3.23516,2.79599e-05
47,33,3.27316,2.67671e-05
48,33,3.31107,2.55289e-05
49,33,3.34886,2.42453e-05
50,33,3.38651,2.29166e-05
51,33,3.42399,2.15429e-05
52,33,3.46128,2.01249e-05
53,33,3.49836,1.8663e-05
54,33,3.5352,1.7158e-05
55,33,3.57178,1.56108e-05
56,33,3.60807,1.40225e-05
57,33,3.64404,1.23942e-05
58,33,3.67968,1.07272e-05
59,33,3.71494,9.02306e-06
60,33,3.74982,7.28319e-06
61,33,3.78428,5.50926e-06
62,33,3.8183,3.70293e-06
63,33,3.85184,1.86593e-06
1,34,1.72789,4.94576e-05
2,34,1.7551,4.93815e-05
3,34,1.78271,4.93066e-05
4,34,1.81074,4.9233e-05
5,34,1.83918,4.91603e-05
6,34,1.86804,4.90879e-05
7,34,1.8973,4.90146e-05
8,34,1.92697,4.89394e-05
9,34,1.95705,4.88608e-05
10,34,1.98752,4.87772e-05
11,34,2.0184,4.86869e-05
12,34,2.04967,4.85883e-05
13,34,2.08132,4.84794e-05
14,34,2.11337,4.83585e-05
15,34,2.14579,4.82236e-05
16,34,2.17859,4.80732e-05
17,34,2.21175,4.79053e-05
18,34,2.24527,4.77184e-05
19,34,2.27915,4.75108e-05
20,34,2.31338,4.7281e-05
21,34,2.34794,4.70274e-05
22,34,2.38283,4.67487e-05
23,34,2.41804,4.64434e-05
24,34,2.45356,4.61104e-05
25,34,2.48938,4.57483e-05
26,34,2.52549,4.53559e-05
27,34,2.56187,4.49321e-05
28,34,2.59852,4.44756e-05
29,34,2.63542,4.39855e-05
30,34,2.67256,4.34606e-05
31,34,2.70993,4.28998e-05
32,34,2.7475,4.23022e-05
33,34,2.78527,4.16667e-05
34,34,2.82321,4.09922e-05
35,34,2.86132,4.02778e-05
36,34,2.89958,3.95226e-05
37,34,2.93797,3.87255e-05
38,34,2.97646,3.78857e-05
39,34,3.01505,3.70023e-05
40,34,3.05372,3.60744e-05
41,34,3.09243,3.51013e-05
42,34,3.13118,3.40822e-05
43,34,3.16995,3.30165e-05
44,34,3.2087,3.19036e-05
45,34,3.24743,3.0743e-05
46,34,3.28611,2.95344e-05
47,34,3.32471,2.82775e-05
48,34,3.36321,2.69721e-05
49,34,3.4016,2.56183e-05
50,34,3.43984,2.42162e-05
51,34,3.47791,2.27662e-05
52,34,3.51579,2.12687e-05
53,34,3.55345,1.97243e-05
54,34,3.59088,1.8134e-05
55,34,3.62803,1.64987e-05
56,34,3.66489,1.48196e-05
57,34,3.70143,1.3098e-05
58,34,3.73762,1.13355e-05
59,34,3.77345,9.53368e-06
60,34,3.80887,7.69431e-06
61,34,3.84387,5.81927e-06
62,34,3.87843,3.91053e-06
63,34,3.9125,1.97009e-06
1,35,1.75511,5.24047e-05
2,35,1.78274,5.23235e-05
3,35,1.81079,5.22411e-05
4,35,1.83926,5.21576e-05
5,35,1.86815,5.20728e-05
6,35,1.89746,5.19862e-05
7,35,1.92718,5.1897e-05
8,35,1.95732,5.18041e-05
9,35,1.98787,5.17065e-05
10,35,2.01882,5.16027e-05
11,35,2.05019,5.14913e-05
12,35,2.08195,5.13706e-05
13,35,2.1141,5.12391e-05
14,35,2.14665,5.10951e-05
15,35,2.17958,5.09369e-05
16,35,2.2129,5.07628e-05
17,35,2.24658,5.05712e-05
18,35,2.28063,5.03604e-05
19,35,2.31505,5.01288e-05
20,35,2.34981,4.9875e-05
21,35,2.38492,4.95973e-05
22,35,2.42036,4.92944e-05
23,35,2.45612,4.89648e-05
24,35,2.4922,4.86071e-05
25,35,2.52859,4.822e-05
26,35,2.56526,4.78023e-05
27,35,2.60222,4.73525e-05
28,35,2.63945,4.68695e-05
29,35,2.67693,4.63521e-05
30,35,2.71465,4.57989e-05
31,35,2.7526,4.52089e-05
32,35,2.79077,4.45808e-05
33,35,2.82913,4.39134e-05
34,35,2.86767,4.32057e-05
35,35,2.90639,4.24563e-05
36,35,2.94524,4.16643e-05
37,35,2.98423,4.08285e-05
38,35,3.02334,3.99479e-05
39,35,3.06253,3.90214e-05
40,35,3.10181,3.8048e-05
41,35,3.14113,3.70269e-05
42,35,3.18049,3.59571e-05
43,35,3.21987,3.48379e-05
44,35,3.25923,3.36685e-05
45,35,3.29857,3.24484e-05
46,35,3.33786,3.11772e-05
47,35,3.37707,2.98544e-05
48,35,3.41618,2.84799e-05
49,35,3.45517,2.70537e-05
50,35,3.49401,2.55758e-05
51,35,3.53268,2.40466e-05
52,35,3.57116,2.24666e-05
53,35,3.60941,2.08366e-05
54,35,3.64742,1.91574e-05
55,35,3.68516,1.74301e-05
56,35,3.7226,1.56561e-05
57,35,3.75972,1.3837e-05
58,35,3.79648,1.19743e-05
59,35,3.83287,1.00701e-05
60,35,3.86885,8.12626e-06
61,35,3.90441,6.14505e-06
62,35,3.9395,4.12871e-06
63,35,3.97411,2.07957e-06
1,36,1.78275,5.53716e-05
2,36,1.81081,5.52858e-05
3,36,1.83931,5.51967e-05
4,36,1.86823,5.51045e-05
5,36,1.89757,5.5009e-05
6,36,1.92734,5.49099e-05
7,36,1.95753,5.48066e-05
8,36,1.98815,5.46983e-05
9,36,2.01917,5.45839e-05
10,36,2.05062,5.44623e-05
11,36,2.08247,5.43321e-05
12,36,2.11473,5.41919e-05
13,36,2.1474,5.40403e-05
14,36,2.18046,5.38757e-05
15,36,2.21391,5.36965e-05
16,36,2.24775,5.35011e-05
17,36,2.28196,5.3288e-05
18,36,2.31655,5.30556e-05
19,36,2.35151,5.28022e-05
20,36,2.38682,5.25264e-05
21,36,2.42248,5.22266e-05
22,36,2.45847,5.19013e-05
23,36,2.4948,5.1549e-05
24,36,2.53145,5.11684e-05
25,36,2.56841,5.0758e-05
26,36,2.60566,5.03163e-05
27,36,2.6432,4.9842e-05
28,36,2.68101,4.93338e-05
29,36,2.71908,4.87901e-05
30,36,2.7574,4.82098e-05
31,36,2.79595,4.75915e-05
32,36,2.83472,4.69338e-05
33,36,2.87368,4.62353e-05
34,36,2.91284,4.54949e-05
35,36,2.95216,4.47111e-05
36,36,2.99163,4.38828e-05
37,36,3.03123,4.30085e-05
38,36,3.07095,4.20872e-05
39,36,3.11076,4.11176e-05
40,36,3.15065,4.00986e-05
41,36,3.1906,3.90291e-05
42,36,3.23058,3.79081e-05
43,36,3.27057,3.67346e-05
44,36,3.31056,3.55078e-05
45,36,3.35052,3.42271e-05
46,36,3.39042,3.28918e-05
47,36,3.43025,3.15015e-05
48,36,3.46998,3.00559e-05
49,36,3.50958,2.8555e-05
50,36,3.54903,2.69988e-05
51,36,3.58831,2.53877e-05
52,36,3.6274,2.37222e-05
53,36,3.66625,2.2003e-05
54,36,3.70486,2.02311e-05
55,36,3.7432,1.84079e-05
56,36,3.78122,1.65347e-05
57,36,3.81892,1.46134e-05
58,36,3.85627,1.26458e-05
59,36,3.89323,1.06341e-05
60,36,3.92978,8.58056e-06
61,36,3.96589,6.48775e-06
62,36,4.00154,4.35825e-06
63,36,4.0367,2.19475e-06
1,37,1.81082,5.83606e-05
2,37,1.83933,5.82708e-05
3,37,1.86827,5.81758e-05
4,37,1.89765,5.80758e-05
5,37,1.92746,5.7971e-05
6,37,1.95769,5.7861e-05
7,37,1.98836,5.77454e-05
8,37,2.01946,5.76236e-05
9,37,2.05097,5.74945e-05
10,37,2.08291,5.73572e-05
11,37,2.11527,5.72105e-05
12,37,2.14804,5.70532e-05
13,37,2.18122,5.68838e-05
14,37,2.2148,5.6701e-05
15,37,2.24877,5.65032e-05
16,37,2.28314,5.62889e-05
17,37,2.3179,5.60566e-05
18,37,2.35303,5.58047e-05
19,37,2.38854,5.55317e-05
20,37,2.42441,5.52359e-05
21,37,2.46063,5.4916e-05
22,37,2.49719,5.45703e-05
23,37,2.53409,5.41972e-05
24,37,2.57132,5.37954e-05
25,37,2.60886,5.33632e-05
26,37,2.6467,5.28992e-05
27,37,2.68483,5.24018e-05
28,37,2.72323,5.18697e-05
29,37,2.76191,5.13012e-05
30,37,2.80083,5.0695e-05
31,37,2.83998,5.00494e-05
32,37,2.87936,4.93631e-05
33,37,2.91894,4.86345e-05
34,37,2.95871,4.78622e-05
35,37,2.99865,4.70447e-05
36,37,3.03874,4.61806e-05
37,37,3.07897,4.52684e-05
38,37,3.11931,4.43066e-05
39,37,3.15975,4.32941e-05
40,37,3.20027,4.22294e-05
41,37,3.24085,4.11113e-05
42,37,3.28146,3.99386e-05
43,37,3.32208,3.87102e-05
44,37,3.3627,3.74252e-05
45,37,3.40328,3.60827e-05
46,37,3.44381,3.4682e-05
47,37,3.48427,3.32226e-05
48,37,3.52462,3.1704e-05
49,37,3.56485,3.01262e-05
50,37,3.60492,2.84892e-05
51,37,3.64482,2.67932e-05
52,37,3.68452,2.50389e-05
53,37,3.72399,2.3227e-05
54,37,3.76321,2.13587e-05
55,37,3.80214,1.94353e-05
56,37,3.84077,1.74584e-05
57,37,3.87906,1.543e-05
58,37,3.917,1.33523e-05
59,37,3.95454,1.12277e-05
60,37,3.99166,9.05887e-06
61,37,4.02835,6.84864e-06
62,37,4.06456,4.6e-06
63,37,4.10027,2.31607e-06
1,38,1.83934,6.13741e-05
2,38,1.8683,6.12806e-05
3,38,1.8977,6.11803e-05
4,38,1.92753,6.10737e-05
5,38,1.95781,6.09607e-05
6,38,1.98853,6.08413e-05
7,38,2.01968,6.0715e-05
8,38,2.05126,6.05814e-05
9,38,2.08327,6.04396e-05
10,38,2.11572,6.02888e-05
11,38,2.14858,6.01278e-05
12,38,2.18187,5.99555e-05
13,38,2.21557,5.97707e-05
14,38,2.24968,5.95719e-05
15,38,2.28419,5.93578e-05
16,38,2.3191,5.91269e-05
17,38,2.3544,5.88776e-05
18,38,2.39009,5.86085e-05
19,38,2.42615,5.83179e-05
20,38,2.46259,5.80044e-05
21,38,2.49938,5.76664e-05
22,38,2.53652,5.73022e-05
23,38,2.574,5.69103e-05
24,38,2.61181,5.6489e-05
25,38,2.64994,5.60369e-05
26,38,2.68838,5.55522e-05
27,38,2.72711,5.50334e-05
28,38,2.76612,5.44789e-05
29,38,2.8054,5.3887e-05
30,38,2.84493,5.32562e-05
31,38,2.88471,5.25847e-05
32,38,2.9247,5.18709e-05
33,38,2.96491,5.11133e-05
34,38,3.0053,5.03101e-05
35,38,3.04587,4.94597e-05
36,38,3.08659,4.85605e-05
37,38,3.12746,4.76108e-05
38,38,3.16844,4.66092e-05
39,38,3.20951,4.5554e-05
40,38,3.25067,4.44437e-05
41,38,3.29188,4.32769e-05
42,38,3.33313,4.20523e-05
43,38,3.3744,4.07685e-05
44,38,3.41565,3.94245e-05
45,38,3.45688,3.80193e-05
46,38,3.49805,3.65519e-05
47,38,3.53914,3.50218e-05
48,38,3.58013,3.34283e-05
49,38,3.62099,3.17714e-05
50,38,3.66169,3.00509e-05
51,38,3.70222,2.82673e-05
52,38,3.74254,2.64209e-05
53,38,3.78264,2.45126e-05
54,38,3.82247,2.25438e-05
55,38,3.86202,2.05157e-05
56,38,3.90125,1.84303e-05
57,38,3.94015,1.62898e-05
58,38,3.97868,1.40965e-05
59,38,4.01681,1.18533e-05
60,38,4.05452,9.56305e-06
61,38,4.09178,7.22913e-06
62,38,4.12856,4.85493e-06
63,38,4.16484,2.444e-06
1,39,1.86831,6.4414e-05
2,39,1.89772,6.43171e-05
3,39,1.92758,6.42122e-05
4,39,1.95789,6.40997e-05
5,39,1.98864,6.39798e-05
6,39,2.01984,6.38522e-05
7,39,2.05148,6.37169e-05
8,39,2.08356,6.35732e-05
9,39,2.11608,6.34206e-05
10,39,2.14904,6.32581e-05
11,39,2.18242,6.3085e-05
12,39,2.21623,6.28999e-05
13,39,2.25046,6.27018e-05
14,39,2.2851,6.24893e-05
15,39,2.32016,6.22611e-05
16,39,2.35562,6.20158e-05
17,39,2.39148,6.17518e-05
18,39,2.42773,6.14677e-05
19,39,2.46436,6.11619e-05
20,39,2.50137,6.08327e-05
21,39,2.53874,6.04787e-05
22,39,2.57647,6.0098e-05
23,39,2.61454,5.96892e-05
24,39,2.65294,5.92505e-05
25,39,2.69167,5.87803e-05
26,39,2.73072,5.82767e-05
27,39,2.77006,5.77382e-05
28,39,2.80968,5.7163e-05
29,39,2.84958,5.65493e-05
30,39,2.88974,5.58953e-05
31,39,2.93014,5.51993e-05
32,39,2.97076,5.44595e-05
33,39,3.0116,5.3674e-05
34,39,3.05263,5.2841e-05
35,39,3.09384,5.19587e-05
36,39,3.1352,5.10253e-05
37,39,3.17671,5.0039e-05
38,39,3.21833,4.89981e-05
39,39,3.26006,4.79006e-05
40,39,3.30186,4.6745e-05
41,39,3.34372,4.55297e-05
42,39,3.38562,4.4253e-05
43,39,3.42754,4.29135e-05
44,39,3.46944,4.151e-05
45,39,3.51132,4.00411e-05
46,39,3.55313,3.85059e-05
47,39,3.59487,3.69035e-05
48,39,3.63651,3.52334e-05
49,39,3.67801,3.34952e-05
50,39,3.71936,3.16887e-05
51,39,3.76052,2.98143e-05
52,39,3.80148,2.78725e-05
53,39,3.8422,2.58641e-05
54,39,3.88267,2.37905e-05
55,39,3.92284,2.16532e-05
56,39,3.96269,1.94542e-05
57,39,4.0022,1.7196e-05
58,39,4.04134,1.48813e-05
59,39,4.08007,1.25132e-05
60,39,4.11837,1.00952e-05
61,39,4.15622,7.63081e-06
62,39,4.19358,5.12409e-06
63,39,4.23042,2.57909e-06
1,40,1.89773,6.74817e-05
2,40,1.92761,6.73819e-05
3,40,1.95794,6.72731e-05
4,40,1.98872,6.71556e-05
5,40,2.01996,6.70296e-05
6,40,2.05165,6.68953e-05
7,40,2.08379,6.67523e-05
8,40,2.11638,6.66002e-05
9,40,2.14941,6.64385e-05
10,40,2.18288,6.62664e-05
11,40,2.21679,6.6083e-05
12,40,2.25113,6.58872e-05
13,40,2.2859,6.5678e-05
14,40,2.32109,6.54541e-05
15,40,2.3567,6.5214e-05
16,40,2.39272,6.49566e-05
17,40,2.42914,6.46801e-05
18,40,2.46596,6.43832e-05
19,40,2.50317,6.40643e-05
20,40,2.54076,6.37217e-05
21,40,2.57872,6.33538e-05
22,40,2.61704,6.29589e-05
23,40,2.65571,6.25352e-05
24,40,2.69472,6.20811e-05
25,40,2.73406,6.15947e-05
26,40,2.77372,6.10742e-05
27,40,2.81368,6.05179e-05
28,40,2.85393,5.99237e-05
29,40,2.89446,5.92899e-05
30,40,2.93525,5.86145e-05
31,40,2.97628,5.78955e-05
32,40,3.01755,5.71311e-05
33,40,3.05903,5.63191e-05
34,40,3.1007,5.54577e-05
35,40,3.14256,5.45447e-05
36,40,3.18458,5.35782e-05
37,40,3.22674,5.25562e-05
38,40,3.26902,5.14767e-05
39,40,3.3114,5.03377e-05
40,40,3.35386,4.91372e-05
41,40,3.39638,4.78736e-05
42,40,3.43894,4.65449e-05
43,40,3.48151,4.51495e-05
44,40,3.52408,4.36859e-05
45,40,3.56661,4.21526e-05
46,40,3.60909,4.05486e-05
47,40,3.65149,3.88726e-05
48,40,3.69377,3.7124e-05
49,40,3.73593,3.53024e-05
50,40,3.77793,3.34074e-05
51,40,3.81974,3.14393e-05
52,40,3.86135,2.93986e-05
53,40,3.90271,2.72862e-05
54,40,3.94381,2.51033e-05
55,40,3.98461,2.28519e-05
56,40,4.0251,2.0534e-05
57,40,4.06523,1.81524e-05
58,40,4.10498,1.571e-05
59,40,4.14432,1.32105e-05
60,40,4.18323,1.06575e-05
61,40,4.22167,8.05547e-06
62,40,4.25962,5.40871e-06
63,40,4.29704,2.72195e-06
1,41,1.92762,7.05788e-05
2,41,1.95797,7.04764e-05
3,41,1.98877,7.03641e-05
4,41,2.02004,7.02425e-05
5,41,2.05177,7.01116e-05
6,41,2.08396,6.99716e-05
7,41,2.11661,6.98224e-05
8,41,2.14971,6.96635e-05
9,41,2.18326,6.94945e-05
10,41,2.21726,6.93145e-05
11,41,2.2517,6.91228e-05
12,41,2.28658,6.89184e-05
13,41,2.3219,6.87002e-05
14,41,2.35765,6.8467e-05
15,41,2.39382,6.82173e-05
16,41,2.4304,6.795e-05
17,41,2.4674,6.76634e-05
18,41,2.5048,6.7356e-05
19,41,2.54259,6.70262e-05
20,41,2.58077,6.66724e-05
21,41,2.61933,6.62929e-05
22,41,2.65825,6.58858e-05
23,41,2.69754,6.54495e-05
24,41,2.73716,6.49821e-05
25,41,2.77712,6.44816e-05
26,41,2.8174,6.39462e-05
27,41,2.85799,6.3374e-05
28,41,2.89888,6.27628e-05
29,41,2.94004,6.21108e-05
30,41,2.98147,6.14157e-05
31,41,3.02315,6.06755e-05
32,41,3.06507,5.98881e-05
33,41,3.1072,5.90513e-05
34,41,3.14954,5.81628e-05
35,41,3.19205,5.72206e-05
36,41,3.23473,5.62223e-05
37,41,3.27755,5.51657e-05
38,41,3.3205,5.40486e-05
39,41,3.36355,5.28689e-05
40,41,3.40668,5.16243e-05
41,41,3.44987,5.03128e-05
42,41,3.4931,4.89323e-05
43,41,3.53634,4.7481e-05
44,41,3.57958,4.59571e-05
45,41,3.62278,4.43589e-05
46,41,3.66593,4.2685e-05
47,41,3.70899,4.09342e-05
48,41,3.75194,3.91056e-05
49,41,3.79477,3.71984e-05
50,41,3.83743,3.52124e-05
51,41,3.8799,3.31476e-05
52,41,3.92216,3.10045e-05
53,41,3.96417,2.8784e-05
54,41,4.00592,2.64874e-05
55,41,4.04736,2.41167e-05
56,41,4.08848,2.16743e-05
57,41,4.12925,1.9163e-05
58,41,4.16962,1.65863e-05
59,41,4.20959,1.39481e-05
60,41,4.24911,1.12528e-05
61,41,4.28815,8.50511e-06
62,41,4.3267,5.71015e-06
63,41,4.36471,2.87327e-06
1,42,1.95798,7.37064e-05
2,42,1.9888,7.36017e-05
3,42,2.02009,7.34866e-05
4,42,2.05186,7.33615e-05
5,42,2.08409,7.32267e-05
6,42,2.11678,7.30823e-05
7,42,2.14994,7.29282e-05
8,42,2.18356,7.2764e-05
9,42,2.21764,7.25893e-05
10,42,2.25218,7.24034e-05
11,42,2.28716,7.22054e-05
12,42,2.32259,7.19944e-05
13,42,2.35847,7.17693e-05
14,42,2.39478,7.15289e-05
15,42,2.43151,7.12719e-05
16,42,2.46868,7.09969e-05
17,42,2.50626,7.07023e-05
18,42,2.54425,7.03867e-05
19,42,2.58264,7.00484e-05
20,42,2.62142,6.96857e-05
21,42,2.66058,6.92969e-05
22,42,2.70012,6.888e-05
23,42,2.74002,6.84333e-05
24,42,2.78027,6.79547e-05
25,42,2.82086,6.74424e-05
26,42,2.86177,6.68943e-05
27,42,2.903,6.63083e-05
28,42,2.94453,6.56822e-05
29,42,2.98634,6.50139e-05
30,42,3.02843,6.43012e-05
31,42,3.07076,6.35417e-05
32,42,3.11334,6.27332e-05
33,42,3.15614,6.18732e-05
34,42,3.19914,6.09595e-05
35,42,3.24232,5.99895e-05
36,42,3.28567,5.89608e-05
37,42,3.32917,5.7871e-05
38,42,3.37279,5.67176e-05
39,42,3.41652,5.54981e-05
40,42,3.46033,5.42103e-05
41,42,3.5042,5.28516e-05
42,42,3.54811,5.14199e-05
43,42,3.59203,4.99129e-05
44,42,3.63595,4.83286e-05
45,42,3.67983,4.66651e-05
46,42,3.72366,4.49207e-05
47,42,3.7674,4.30939e-05
48,42,3.81103,4.11837e-05
49,42,3.85453,3.9189e-05
50,42,3.89786,3.71095e-05
51,42,3.941,3.4945e-05
52,42,3.98392,3.2696e-05
53,42,4.0266,3.03632e-05
54,42,4.069,2.79482e-05
55,42,4.1111,2.54529e-05
56,42,4.15287,2.28799e-05
57,42,4.19427,2.02324e-05
58,42,4.23529,1.75143e-05
59,42,4.27588,1.47298e-05
60,42,4.31602,1.18839e-05
61,42,4.35568,8.982e-06
62,42,4.39483,6.02994e-06
63,42,4.43345,3.03383e-06
1,43,1.98881,7.68654e-05
2,43,2.02012,7.67588e-05
3,43,2.05191,7.66413e-05
4,43,2.08417,7.65136e-05
5,43,2.11691,7.63758e-05
6,43,2.15012,7.62282e-05
7,43,2.1838,7.60705e-05
8,43,2.21795,7.59026e-05
9,43,2.25257,7.57239e-05
10,43,2.28765,7.55337e-05
11,43,2.32318,7.53313e-05
12,43,2.35917,7.51157e-05
13,43,2.39561,7.48859e-05
14,43,2.43249,7.46405e-05
15,43,2.46981,7.43784e-05
16,43,2.50756,7.4098e-05
17,43,2.54573,7.37979e-05
18,43,2.58431,7.34765e-05
19,43,2.62331,7.3132e-05
20,43,2.6627,7.27628e-05
21,43,2.70248,7.23669e-05
22,43,2.74264,7.19426e-05
23,43,2.78317,7.14878e-05
24,43,2.82405,7.10005e-05
25,43,2.86528,7.04787e-05
26,43,2.90684,6.99201e-05
27,43,2.94872,6.93225e-05
28,43,2.9909,6.86837e-05
29,43,3.03337,6.80014e-05
30,43,3.07612,6.72731e-05
31,43,3.11912,6.64964e-05
32,43,3.16237,6.56688e-05
33,43,3.20584,6.47877e-05
34,43,3.24952,6.38505e-05
35,43,3.29338,6.28546e-05
36,43,3.33741,6.17972e-05
37,43,3.3816,6.06758e-05
38,43,3.4259,5.94875e-05
39,43,3.47032,5.82297e-05
40,43,3.51482,5.68996e-05
41,43,3.55938,5.54947e-05
42,43,3.60398,5.40124e-05
43,43,3.6486,5.24502e-05
44,43,3.69321,5.08057e-05
45,43,3.73778,4.90767e-05
46,43,3.7823,4.72613e-05
47,43,3.82673,4.53577e-05
48,43,3.87105,4.33645e-05
49,43,3.91523,4.12805e-05
50,43,3.95924,3.91051e-05
51,43,4.00306,3.6838e-05
52,43,4.04666,3.44795e-05
53,43,4.09001,3.20303e-05
54,43,4.13308,2.94919e-05
55,43,4.17584,2.68664e-05
56,43,4.21827,2.41566e-05
57,43,4.26032,2.13659e-05
58,43,4.30198,1.84986e-05
59,43,4.34321,1.55595e-05
60,43,4.38399,1.25542e-05
61,43,4.42428,9.48875e-06
62,43,4.46404,6.36986e-06
63,43,4.50326,3.20452e-06
1,44,2.02013,8.00564e-05
2,44,2.05194,7.99482e-05
3,44,2.08422,7.9829e-05
4,44,2.11699,7.96993e-05
5,44,2.15025,7.95596e-05
6,44,2.18398,7.94099e-05
7,44,2.21819,7.925e-05
8,44,2.25288,7.90798e-05
9,44,2.28804,7.88988e-05
10,44,2.32367,7.87062e-05
11,44,2.35977,7.85013e-05
12,44,2.39632,7.82832e-05
13,44,2.43334,7.80507e-05
14,44,2.4708,7.78026e-05
15,44,2.5087,7.75376e-05
16,44,2.54705,7.72542e-05
17,44,2.58582,7.69509e-05
18,44,2.62501,7.6626e-05
19,44,2.66462,7.62778e-05
20,44,2.70463,7.59045e-05
21,44,2.74504,7.55042e-05
22,44,2.78583,7.50748e-05
23,44,2.827,7.46144e-05
24,44,2.86853,7.41208e-05
25,44,2.9104,7.35918e-05
26,44,2.95262,7.30252e-05
27,44,2.99515,7.24185e-05
28,44,3.038,7.17694e-05
29,44,3.08114,7.10754e-05
30,44,3.12456,7.03339e-05
31,44,3.16824,6.95422e-05
32,44,3.21217,6.86977e-05
33,44,3.25633,6.77976e-05
34,44,3.30069,6.68391e-05
35,44,3.34525,6.58192e-05
36,44,3.38997,6.47351e-05
37,44,3.43485,6.35839e-05
38,44,3.47986,6.23624e-05
39,44,3.52497,6.10677e-05
40,44,3.57017,5.96969e-05
41,44,3.61544,5.8247e-05
42,44,3.66074,5.67151e-05
43,44,3.70606,5.50983e-05
44,44,3.75137,5.33941e-05
45,44,3.79665,5.15998e-05
46,44,3.84186,4.97131e-05
47,44,3.88699,4.7732e-05
48,44,3.93201,4.56547e-05
49,44,3.97688,4.34798e-05
50,44,4.02159,4.12063e-05
51,44,4.0661,3.88337e-05
52,44,4.11039,3.63621e-05
53,44,4.15442,3.37922e-05
54,44,4.19817,3.11254e-05
55,44,4.2416,2.83639e-05
56,44,4.2847,2.55106e-05
57,44,4.32741,2.25693e-05
58,44,4.36973,1.95446e-05
59,44,4.41161,1.64419e-05
60,44,4.45303,1.32675e-05
61,44,4.49395,1.00283e-05
62,44,4.53434,6.73193e-06
63,44,4.57418,3.38637e-06
1,45,2.05195,8.32801e-05
2,45,2.08425,8.31705e-05
3,45,2.11705,8.30501e-05
4,45,2.15033,8.29193e-05
5,45,2.18411,8.27786e-05
6,45,2.21838,8.26279e-05
7,45,2.25313,8.24672e-05
8,45,2.28836,8.22963e-05
9,45,2.32408,8.21146e-05
10,45,2.36027,8.19214e-05
11,45,2.39693,8.1716e-05
12,45,2.43406,8.14974e-05
13,45,2.47166,8.12644e-05
14,45,2.50971,8.10159e-05
15,45,2.54821,8.07503e-05
16,45,2.58716,8.04663e-05
17,45,2.62654,8.01622e-05
18,45,2.66635,7.98363e-05
19,45,2.70659,7.94869e-05
20,45,2.74723,7.9112e-05
21,45,2.78827,7.87097e-05
22,45,2.82971,7.82779e-05
23,45,2.87152,7.78144e-05
24,45,2.9137,7.73171e-05
25,45,2.95624,7.67836e-05
26,45,2.99912,7.62114e-05
27,45,3.04232,7.55982e-05
28,45,3.08585,7.49413e-05
29,45,3.12967,7.42381e-05
30,45,3.17377,7.34858e-05
31,45,3.21814,7.26816e-05
32,45,3.26276,7.18226e-05
33,45,3.30761,7.09059e-05
34,45,3.35267,6.99284e-05
35,45,3.39793,6.88868e-05
36,45,3.44336,6.77782e-05
37,45,3.48894,6.65992e-05
38,45,3.53466,6.53465e-05
39,45,3.58048,6.40168e-05
40,45,3.6264,6.26069e-05
41,45,3.67237,6.11135e-05
42,45,3.71839,5.95332e-05
43,45,3.76442,5.7863e-05
44,45,3.81045,5.60998e-05
45,45,3.85644,5.42406e-05
46,45,3.90237,5.22827e-05
47,45,3.94821,5.02237e-05
48,45,3.99393,4.80614e-05
49,45,4.03951,4.57941e-05
50,45,4.08492,4.34204e-05
51,45,4.13014,4.09396e-05
52,45,4.17512,3.83515e-05
53,45,4.21984,3.56567e-05
54,45,4.26428,3.28564e-05
55,45,4.3084,2.99528e-05
56,45,4.35217,2.69491e-05
57,45,4.39556,2.38492e-05
58,45,4.43854,2.06582e-05
59,45,4.48108,1.73823e-05
60,45,4.52315,1.40283e-05
61,45,4.56472,1.06041e-05
62,45,4.60575,7.11848e-06
63,45,4.64621,3.58056e-06
1,46,2.08426,8.65366e-05
2,46,2.11708,8.6426e-05
3,46,2.15039,8.63049e-05
4,46,2.1842,8.61738e-05
5,46,2.21851,8.6033e-05
6,46,2.25331,8.58826e-05
7,46,2.28861,8.57224e-05
8,46,2.3244,8.55523e-05
9,46,2.36068,8.53716e-05
10,46,2.39744,8.51798e-05
11,46,2.43468,8.49758e-05
12,46,2.4724,8.47588e-05
13,46,2.51058,8.45276e-05
14,46,2.54923,8.42808e-05
15,46,2.58834,8.4017e-05
16,46,2.6279,8.37348e-05
17,46,2.66791,8.34324e-05
18,46,2.70834,8.31081e-05
19,46,2.74921,8.276e-05
20,46,2.79049,8.23862e-05
21,46,2.83218,8.19846e-05
22,46,2.87427,8.1553e-05
23,46,2.91674,8.10892e-05
24,46,2.95959,8.05908e-05
25,46,3.00279,8.00554e-05
26,46,3.04635,7.94804e-05
27,46,3.09024,7.88633e-05
28,46,3.13444,7.82013e-05
29,46,3.17895,7.74916e-05
30,46,3.22375,7.67312e-05
31,46,3.26882,7.59172e-05
32,46,3.31414,7.50464e-05
33,46,3.3597,7.41157e-05
34,46,3.40547,7.31216e-05
35,46,3.45144,7.20609e-05
36,46,3.49759,7.09301e-05
37,46,3.54389,6.97257e-05
38,46,3.59032,6.84441e-05
39,46,3.63687,6.70816e-05
40,46,3.68351,6.56346e-05
41,46,3.73021,6.40995e-05
42,46,3.77695,6.24725e-05
43,46,3.82371,6.07503e-05
44,46,3.87046,5.89291e-05
45,46,3.91717,5.70058e-05
46,46,3.96382,5.49771e-05
47,46,4.01038,5.28402e-05
48,46,4.05683,5.05924e-05
49,46,4.10313,4.82316e-05
50,46,4.14925,4.5756e-05
51,46,4.19518,4.31644e-05
52,46,4.24087,4.04565e-05
53,46,4.2863,3.76324e-05
54,46,4.33143,3.46934e-05
55,46,4.37625,3.16415e-05
56,46,4.42071,2.848e-05
57,46,4.46478,2.52132e-05
58,46,4.50844,2.18465e-05
59,46,4.55165,1.83867e-05
60,46,4.59438,1.48416e-05
61,46,4.6366,1.12202e-05
62,46,4.67828,7.53224e-06
63,46,4.71938,3.78848e-06
1,47,2.11709,8.98259e-05
2,47,2.15042,8.97147e-05
3,47,2.18425,8.95935e-05
4,47,2.2186,8.94628e-05
5,47,2.25345,8.93229e-05
6,47,2.2888,8.9174e-05
7,47,2.32465,8.90158e-05
8,47,2.361,8.88481e-05
9,47,2.39785,8.86702e-05
10,47,2.43519,8.84815e-05
11,47,2.47302,8.82811e-05
12,47,2.51133,8.80678e-05
13,47,2.55012,8.78406e-05
14,47,2.58938,8.75979e-05
15,47,2.6291,8.73385e-05
16,47,2.66929,8.70605e-05
17,47,2.70992,8.67624e-05
18,47,2.751,8.64423e-05
19,47,2.79251,8.60982e-05
20,47,2.83444,8.57282e-05
21,47,2.87678,8.533e-05
22,47,2.91953,8.49013e-05
23,47,2.96268,8.44399e-05
24,47,3.0062,8.39433e-05
25,47,3.05008,8.34089e-05
26,47,3.09432,8.2834e-05
27,47,3.1389,8.22159e-05
28,47,3.1838,8.15516e-05
29,47,3.22902,8.08383e-05
30,47,3.27452,8.00727e-05
31,47,3.3203,7.92517e-05
32,47,3.36633,7.83719e-05
33,47,3.41261,7.74299e-05
34,47,3.4591,7.64222e-05
35,47,3.50579,7.53451e-05
36,47,3.55267,7.41949e-05
37,47,3.5997,7.29677e-05
38,47,3.64686,7.16597e-05
39,47,3.69414,7.02668e-05
40,47,3.74152,6.87851e-05
41,47,3.78895,6.72105e-05
42,47,3.83643,6.55389e-05
43,47,3.88392,6.37663e-05
44,47,3.93141,6.18888e-05
45,47,3.97886,5.99026e-05
46,47,4.02624,5.78039e-05
47,47,4.07354,5.55894e-05
48,47,4.12071,5.32559e-05
49,47,4.16774,5.08008e-05
50,47,4.2146,4.82218e-05
51,47,4.26124,4.55173e-05
52,47,4.30765,4.26864e-05
53,47,4.3538,3.9729e-05
54,47,4.39965,3.6646e-05
55,47,4.44517,3.34395e-05
56,47,4.49033,3.01126e-05
57,47,4.53509,2.66698e-05
58,47,4.57944,2.31173e-05
59,47,4.62333,1.94622e-05
60,47,4.66673,1.57134e-05
61,47,4.70962,1.1881e-05
62,47,4.75195,7.97638e-06
63,47,4.7937,4.01174e-06
1,48,2.15043,9.31479e-05
2,48,2.18428,9.30364e-05
3,48,2.21865,9.29157e-05
4,48,2.25354,9.27862e-05
5,48,2.28893,9.26484e-05
6,48,2.32484,9.25022e-05
7,48,2.36126,9.23474e-05
8,48,2.39819,9.21837e-05
9,48,2.43562,9.20105e-05
10,48,2.47354,9.18269e-05
11,48,2.51197,9.16321e-05
12,48,2.55088,9.14248e-05
13,48,2.59028,9.12038e-05
14,48,2.63016,9.09678e-05
15,48,2.67051,9.07151e-05
16,48,2.71132,9.0444e-05
17,48,2.7526,9.01529e-05
18,48,2.79432,8.98396e-05
19,48,2.83648,8.95024e-05
20,48,2.87908,8.91389e-05
21,48,2.92209,8.87469e-05
22,48,2.96551,8.83241e-05
23,48,3.00933,8.78681e-05
24,48,3.05354,8.73762e-05
25,48,3.09812,8.68457e-05
26,48,3.14305,8.62739e-05
27,48,3.18833,8.56577e-05
28,48,3.23394,8.49943e-05
29,48,3.27987,8.42803e-05
30,48,3.32609,8.35126e-05
31,48,3.37259,8.26876e-05
32,48,3.41935,8.18019e-05
33,48,3.46635,8.08518e-05
34,48,3.51358,7.98334e-05
35,48,3.561,7.8743e-05
36,48,3.60862,7.75763e-05
37,48,3.65639,7.63294e-05
38,48,3.7043,7.49979e-05
39,48,3.75232,7.35775e-05
40,48,3.80044,7.20637e-05
41,48,3.84862,7.04522e-05
42,48,3.89685,6.87383e-05
43,48,3.94509,6.69177e-05
44,48,3.99332,6.49858e-05
45,48,4.04152,6.29383e-05
46,48,4.08965,6.0771e-05
47,48,4.13769,5.84797e-05
48,48,4.18561,5.6061e-05
49,48,4.23338,5.35113e-05
50,48,4.28097,5.08279e-05
51,48,4.32835,4.80086e-05
52,48,4.37549,4.50518e-05
53,48,4.42236,4.19572e-05
54,48,4.46893,3.87251e-05
55,48,4.51517,3.53574e-05
56,48,4.56104,3.18572e-05
57,48,4.60651,2.82292e-05
58,48,4.65156,2.44797e-05
59,48,4.69614,2.06169e-05
60,48,4.74023,1.66506e-05
61,48,4.78378,1.25922e-05
62,48,4.82678,8.45467e-06
63,48,4.86919,4.25226e-06
1,49,2.1843,9.65021e-05
2,49,2.21868,9.63906e-05
3,49,2.25359,9.6271e-05
4,49,2.28903,9.61437e-05
5,49,2.32498,9.6009e-05
6,49,2.36146,9.58668e-05
7,49,2.39845,9.5717e-05
8,49,2.43596,9.55591e-05
9,49,2.47397,9.53923e-05
10,49,2.5125,9.52159e-05
11,49,2.55153,9.50289e-05
12,49,2.59105,9.48299e-05
13,49,2.63107,9.46176e-05
14,49,2.67158,9.43907e-05
15,49,2.71257,9.41473e-05
16,49,2.75402,9.38858e-05
17,49,2.79595,9.36044e-05
18,49,2.83833,9.33008e-05
19,49,2.88115,9.29732e-05
20,49,2.92442,9.26192e-05
21,49,2.96811,9.22365e-05
22,49,3.01221,9.18226e-05
23,49,3.05673,9.13749e-05
24,49,3.10163,9.08908e-05
25,49,3.14691,9.03674e-05
26,49,3.19255,8.98017e-05
27,49,3.23855,8.91908e-05
28,49,3.28487,8.85313e-05
29,49,3.33152,8.782e-05
30,49,3.37847,8.70533e-05
31,49,3.4257,8.62277e-05
32,49,3.4732,8.53394e-05
33,49,3.52094,8.43844e-05
34,49,3.56891,8.33587e-05
35,49,3.61708,8.22582e-05
36,49,3.66545,8.10785e-05
37,49,3.71397,7.9815e-05
38,49,3.76263,7.84633e-05
39,49,3.81141,7.70185e-05
40,49,3.86029,7.54759e-05
41,49,3.90923,7.38305e-05
42,49,3.95822,7.20773e-05
43,49,4.00722,7.02113e-05
44,49,4.05621,6.82275e-05
45,49,4.10516,6.61209e-05
46,49,4.15405,6.38867e-05
47,49,4.20285,6.15202e-05
48,49,4.25152,5.9017e-05
49,49,4.30005,5.63731e-05
50,49,4.34839,5.35848e-05
51,49,4.39651,5.06492e-05
52,49,4.4444,4.75643e-05
53,49,4.49201,4.43288e-05
54,49,4.53931,4.09427e-05
55,49,4.58627,3.74074e-05
56,49,4.63287,3.37258e-05
57,49,4.67906,2.99027e-05
58,49,4.72481,2.59447e-05
59,49,4.77009,2.18606e-05
60,49,4.81487,1.76614e-05
61,49,4.85912,1.33601e-05
62,49,4.90279,8.97158e-06
63,49,4.94587,4.51234e-06
1,50,2.2187,9.98877e-05
2,50,2.25362,9.97768e-05
3,50,2.28908,9.96589e-05
4,50,2.32507,9.95347e-05
5,50,2.3616,9.94042e-05
6,50,2.39865,9.92675e-05
7,50,2.43622,9.91243e-05
8,50,2.47432,9.89739e-05
9,50,2.51293,9.88156e-05
10,50,2.55207,9.86485e-05
11,50,2.59171,9.84715e-05
12,50,2.63186,9.82832e-05
13,50,2.67251,9.80822e-05
14,50,2.71365,9.78669e-05
15,50,2.75528,9.76356e-05
16,50,2.7974,9.73865e-05
17,50,2.83998,9.71175e-05
18,50,2.88303,9.68266e-05
19,50,2.92653,9.65116e-05
20,50,2.97047,9.61701e-05
21,50,3.01485,9.57997e-05
22,50,3.05965,9.53978e-05
23,50,3.10486,9.49617e-05
24,50,3.15047,9.44885e-05
25,50,3.19647,9.39754e-05
26,50,3.24283,9.34193e-05
27,50,3.28955,9.28168e-05
28,50,3.33661,9.21647e-05
29,50,3.38399,9.14595e-05
30,50,3.43167,9.06974e-05
31,50,3.47965,8.98746e-05
32,50,3.52789,8.89872e-05
33,50,3.57639,8.80309e-05
34,50,3.62511,8.70015e-05
35,50,3.67405,8.58946e-05
36,50,3.72317,8.47053e-05
37,50,3.77246,8.3429e-05
38,50,3.82189,8.20607e-05
39,50,3.87144,8.05952e-05
40,50,3.92108,7.90272e-05
41,50,3.97079,7.73514e-05
42,50,4.02055,7.55622e-05
43,50,4.07032,7.36541e-05
44,50,4.12009,7.16214e-05
45,50,4.16981,6.94586e-05
46,50,4.21947,6.71601e-05
47,50,4.26904,6.47204e-05
48,50,4.31848,6.21343e-05
49,50,4.36776,5.9397e-05
50,50,4.41687,5.6504e-05
51,50,4.46575,5.34516e-05
52,50,4.51439,5.02367e-05
53,50,4.56275,4.68572e-05
54,50,4.61079,4.33125e-05
55,50,4.6585,3.96033e-05
56,50,4.70582,3.57321e-05
57,50,4.75274,3.17036e-05
58,50,4.79922,2.75245e-05
59,50,4.84521,2.32045e-05
60,50,4.8907,1.87556e-05
61,50,4.93564,1.41926e-05
62,50,4.98,9.53252e-06
63,50,5.02375,4.79476e-06
1,51,2.25364,0.000103304
2,51,2.28911,0.000103194
3,51,2.32513,0.000103078
4,51,2.36169,0.000102958
5,51,2.39879,0.000102833
6,51,2.43642,0.000102704
7,51,2.47459,0.000102569
8,51,2.51328,0.000102428
9,51,2.55251,0.00010228
10,51,2.59226,0.000102124
11,51,2.63253,0.00010196
12,51,2.67331,0.000101785
13,51,2.7146,0.000101598
14,51,2.75639,0.000101397
15,51,2.79868,0.00010118
16,51,2.84145,0.000100946
17,51,2.8847,0.000100693
18,51,2.92843,0.000100418
19,51,2.97261,0.000100118
20,51,3.01725,9.97924e-05
21,51,3.06233,9.94375e-05
22,51,3.10784,9.90508e-05
23,51,3.15376,9.86296e-05
24,51,3.20009,9.81708e-05
25,51,3.24681,9.76714e-05
26,51,3.2939,9.71282e-05
27,51,3.34135,9.65378e-05
28,51,3.38915,9.58966e-05
29,51,3.43728,9.5201e-05
30,51,3.48572,9.44471e-05
31,51,3.53445,9.36309e-05
32,51,3.58345,9.27482e-05
33,51,3.63271,9.17945e-05
34,51,3.6822,9.07652e-05
35,51,3.73191,8.96557e-05
36,51,3.7818,8.8461e-05
37,51,3.83187,8.71758e-05
38,51,3.88208,8.57948e-05
39,51,3.93241,8.43125e-05
40,51,3.98283,8.27232e-05
41,51,4.03333,8.1021e-05
42,51,4.08387,7.91997e-05
43,51,4.13442,7.72533e-05
44,51,4.18497,7.51755e-05
45,51,4.23548,7.29599e-05
46,51,4.28592,7.06002e-05
47,51,4.33627,6.80901e-05
48,51,4.38649,6.54236e-05
49,51,4.43655,6.25948e-05
50,51,4.48642,5.95981e-05
51,51,4.53608,5.64289e-05
52,51,4.58548,5.30829e-05
53,51,4.6346,4.95571e-05
54,51,4.68341,4.58498e-05
55,51,4.73186,4.19608e-05
56,51,4.77993,3.78919e-05
57,51,4.82759,3.36473e-05
58,51,4.87479,2.92341e-05
59,51,4.92151,2.46622e-05
60,51,4.96772,1.9945e-05
61,51,5.01336,1.5099e-05
62,51,5.05843,1.01441e-05
63,51,5.10287,5.10289e-06
1,52,2.28913,0.000106749
2,52,2.32516,0.000106641
3,52,2.36175,0.000106529
4,52,2.39888,0.000106413
5,52,2.43656,0.000106295
6,52,2.47479,0.000106174
7,52,2.51356,0.000106049
8,52,2.55286,0.00010592
9,52,2.59271,0.000105785
10,52,2.63308,0.000105643
11,52,2.67398,0.000105494
12,52,2.71541,0.000105334
13,52,2.75735,0.000105164
14,52,2.7998,0.00010498
15,52,2.84275,0.000104782
16,52,2.8862,0.000104566
17,52,2.93013,0.000104331
18,52,2.97455,0.000104074
19,52,3.01943,0.000103794
20,52,3.06477,0.000103487
21,52,3.11056,0.000103151
22,52,3.15678,0.000102783
23,52,3.20343,0.00010238
24,52,3.25048,0.000101939
25,52,3.29794,0.000101457
26,52,3.34577,0.00010093
27,52,3.39397,0.000100355
28,52,3.44253,9.9729e-05
29,52,3.49141,9.90468e-05
30,52,3.54061,9.8305e-05
31,52,3.59011,9.74993e-05
32,52,3.63988,9.66252e-05
33,52,3.68992,9.56781e-05
34,52,3.74019,9.46532e-05
35,52,3.79068,9.35453e-05
36,52,3.84136,9.23493e-05
37,52,3.89221,9.10596e-05
38,52,3.94321,8.96704e-05
39,52,3.99434,8.81758e-05
40,52,4.04555,8.65696e-05
41,52,4.09685,8.48455e-05
42,52,4.14818,8.29966e-05
43,52,4.19954,8.10164e-05
44,52,4.25088,7.88977e-05
45,52,4.30218,7.66336e-05
46,52,4.35342,7.42167e-05
47,52,4.40456,7.164e-05
48,52,4.45557,6.88963e-05
49,52,4.50642,6.59787e-05
50,52,4.55708,6.28805e-05
51,52,4.60751,5.95956e-05
52,52,4.6577,5.61186e-05
53,52,4.70759,5.2445e-05
54,52,4.75716,4.85718e-05
55,52,4.80638,4.44977e-05
56,52,4.85521,4.02233e-05
57,52,4.90361,3.57521e-05
58,52,4.95156,3.10909e-05
59,52,4.99902,2.62499e-05
60,52,5.04595,2.12437e-05
61,52,5.09231,1.60909e-05
62,52,5.13809,1.08144e-05
63,52,5.18322,5.44098e-06
1,53,2.32518,0.000110222
2,53,2.36178,0.000110116
3,53,2.39894,0.000110008
4,53,2.43666,0.000109899
5,53,2.47494,0.000109789
6,53,2.51376,0.000109678
7,53,2.55314,0.000109566
8,53,2.59307,0.00010945
9,53,2.63354,0.00010933
10,53,2.67455,0.000109205
11,53,2.71609,0.000109073
12,53,2.75817,0.000108932
13,53,2.80077,0.000108781
14,53,2.84389,0.000108617
15,53,2.88752,0.00010844
16,53,2.93165,0.000108245
17,53,2.97628,0.000108032
18,53,3.02139,0.000107798
19,53,3.06698,0.000107539
20,53,3.11303,0.000107255
21,53,3.15954,0.000106941
22,53,3.20649,0.000106595
23,53,3.25388,0.000106214
24,53,3.30167,0.000105794
25,53,3.34987,0.000105333
26,53,3.39846,0.000104827
27,53,3.44742,0.000104272
28,53,3.49674,0.000103664
29,53,3.54639,0.000102999
30,53,3.59637,0.000102273
31,53,3.64665,0.000101482
32,53,3.69721,0.000100621
33,53,3.74803,9.96849e-05
34,53,3.79909,9.86687e-05
35,53,3.85038,9.7567e-05
36,53,3.90186,9.63744e-05
37,53,3.95351,9.50848e-05
38,53,4.00531,9.36922e-05
39,53,4.05724,9.21902e-05
40,53,4.10927,9.05722e-05
41,53,4.16136,8.88311e-05
42,53,4.21351,8.69598e-05
43,53,4.26567,8.49508e-05
44,53,4.31782,8.27964e-05
45,53,4.36993,8.04887e-05
46,53,4.42198,7.80196e-05
47,53,4.47392,7.53809e-05
48,53,4.52573,7.25644e-05
49,53,4.57739,6.95619e-05
50,53,4.62884,6.63654e-05
51,53,4.68007,6.29672e-05
52,53,4.73105,5.93605e-05
53,53,4.78172,5.5539e-05
54,53,4.83208,5.1498e-05
55,53,4.88207,4.72343e-05
56,53,4.93167,4.27473e-05
57,53,4.98084,3.80392e-05
58,53,5.02954,3.31158e-05
59,53,5.07774,2.79874e-05
60,53,5.12541,2.26694e-05
61,53,5.17251,1.71827e-05
62,53,5.219,1.15538e-05
63,53,5.26485,5.81435e-06
1,54,2.3618,0.000113721
2,54,2.39898,0.000113617
3,54,2.43672,0.000113514
4,54,2.47504,0.000113413
5,54,2.51391,0.000113313
6,54,2.55335,0.000113215
7,54,2.59335,0.000113116
8,54,2.63391,0.000113016
9,54,2.67501,0.000112914
10,54,2.71667,0.000112808
11,54,2.75887,0.000112696
12,54,2.80161,0.000112577
13,54,2.84488,0.000112448
14,54,2.88868,0.000112308
15,54,2.93299,0.000112154
16,54,2.97782,0.000111985
17,54,3.02315,0.000111797
18,54,3.06897,0.000111587
19,54,3.11528,0.000111355
20,54,3.16206,0.000111096
21,54,3.2093,0.000110808
22,54,3.25699,0.000110488
23,54,3.30512,0.000110132
24,54,3.35367,0.000109738
25,54,3.40263,0.000109302
26,54,3.45198,0.00010882
27,54,3.50171,0.000108288
28,54,3.55181,0.000107703
29,54,3.60224,0.000107059
30,54,3.65301,0.000106354
31,54,3.70408,0.000105582
32,54,3.75543,0.000104738
33,54,3.80706,0.000103818
34,54,3.85892,0.000102815
35,54,3.91101,0.000101724
36,54,3.9633,0.00010054
37,54,4.01577,9.92557e-05
38,54,4.06839,9.78649e-05
39,54,4.12113,9.63609e-05
40,54,4.17398,9.47364e-05
41,54,4.2269,9.2984e-05
42,54,4.27986,9.10959e-05
43,54,4.33285,8.9064e-05
44,54,4.38582,8.68797e-05
45,54,4.43875,8.45344e-05
46,54,4.49162,8.20189e-05
47,54,4.54438,7.93241e-05
48,54,4.59701,7.64403e-05
49,54,4.64947,7.33581e-05
50,54,4.70174,7.0068e-05
51,54,4.75378,6.65606e-05
52,54,4.80555,6.2827e-05
53,54,4.85703,5.8859e-05
54,54,4.90817,5.46498e-05
55,54,4.95895,5.01939e-05
56,54,5.00933,4.54885e-05
57,54,5.05927,4.05336e-05
58,54,5.10874,3.53338e-05
59,54,5.15771,2.98986e-05
60,54,5.20612,2.42438e-05
61,54,5.25396,1.83925e-05
62,54,5.30119,1.23752e-05
63,54,5.34776,6.22989e-06
1,55,2.39899,0.000117243
2,55,2.43676,0.000117142
3,55,2.4751,0.000117045
4,55,2.51401,0.000116954
5,55,2.5535,0.000116866
6,55,2.59356,0.000116782
7,55,2.63419,0.0001167
8,55,2.67539,0.000116618
9,55,2.71714,0.000116537
10,55,2.75945,0.000116453
11,55,2.80232,0.000116364
12,55,2.84573,0.00011627
13,55,2.88968,0.000116167
14,55,2.93417,0.000116053
15,55,2.97918,0.000115926
16,55,3.02472,0.000115785
17,55,3.07076,0.000115625
18,55,3.1173,0.000115445
19,55,3.16434,0.000115241
20,55,3.21186,0.000115012
21,55,3.25984,0.000114753
22,55,3.30828,0.000114462
23,55,3.35717,0.000114136
24,55,3.40648,0.000113771
25,55,3.45622,0.000113364
26,55,3.50635,0.00011291
27,55,3.55686,0.000112406
28,55,3.60774,0.000111847
29,55,3.65897,0.00011123
30,55,3.71054,0.00011055
31,55,3.76241,0.000109801
32,55,3.81457,0.00010898
33,55,3.86701,0.000108079
34,55,3.91969,0.000107095
35,55,3.97261,0.000106021
36,55,4.02572,0.00010485
37,55,4.07901,0.000103576
38,55,4.13246,0.000102193
39,55,4.18604,0.000100693
40,55,4.23971,9.90678e-05
41,55,4.29347,9.73103e-05
42,55,4.34727,9.54118e-05
43,55,4.40108,9.33634e-05
44,55,4.45489,9.1156e-05
45,55,4.50866,8.87799e-05
46,55,4.56235,8.6225e-05
47,55,4.61594,8.34809e-05
48,55,4.6694,8.05368e-05
49,55,4.72269,7.73817e-05
50,55,4.77578,7.40043e-05
51,55,4.82864,7.03934e-05
52,55,4.88123,6.65378e-05
53,55,4.93352,6.24271e-05
54,55,4.98547,5.80514e-05
55,55,5.03705,5.34027e-05
56,55,5.08822,4.84748e-05
57,55,5.13895,4.3265e-05
58,55,5.1892,3.77753e-05
59,55,5.23893,3.20133e-05
60,55,5.28811,2.59945e-05
61,55,5.3367,1.97437e-05
62,55,5.38467,1.3296e-05
63,55,5.43197,6.69671e-06
1,56,2.43677,0.000120786
2,56,2.47513,0.000120689
3,56,2.51408,0.0001206
4,56,2.55361,0.000120519
5,56,2.59372,0.000120445
6,56,2.63441,0.000120377
7,56,2.67568,0.000120315
8,56,2.71752,0.000120255
9,56,2.75993,0.000120197
10,56,2.80291,0.000120138
11,56,2.84645,0.000120076
12,56,2.89054,0.000120009
13,56,2.93519,0.000119935
14,56,2.98038,0.000119851
15,56,3.0261,0.000119755
16,56,3.07235,0.000119645
17,56,3.11912,0.000119517
18,56,3.1664,0.000119369
19,56,3.21417,0.000119199
20,56,3.26244,0.000119003
21,56,3.31118,0.000118777
22,56,3.36038,0.00011852
23,56,3.41004,0.000118227
24,56,3.46013,0.000117895
25,56,3.51065,0.00011752
26,56,3.56157,0.000117099
27,56,3.61288,0.000116627
28,56,3.66456,0.0001161
29,56,3.7166,0.000115513
30,56,3.76897,0.000114863
31,56,3.82166,0.000114142
32,56,3.87465,0.000113348
33,56,3.92791,0.000112473
34,56,3.98142,0.000111512
35,56,4.03517,0.000110459
36,56,4.08912,0.000109308
37,56,4.14325,0.000108051
38,56,4.19754,0.000106681
39,56,4.25196,0.00010519
40,56,4.30648,0.000103572
41,56,4.36108,0.000101816
42,56,4.41573,9.99139e-05
43,56,4.47039,9.78564e-05
44,56,4.52505,9.56334e-05
45,56,4.57966,9.32342e-05
46,56,4.6342,9.06479e-05
47,56,4.68864,8.78628e-05
48,56,4.74294,8.48667e-05
49,56,4.79707,8.16471e-05
50,56,4.85099,7.81907e-05
51,56,4.90468,7.44842e-05
52,56,4.9581,7.05141e-05
53,56,5.01121,6.62669e-05
54,56,5.06398,6.17295e-05
55,56,5.11637,5.68901e-05
56,56,5.16835,5.17386e-05
57,56,5.21988,4.62683e-05
58,56,5.27092,4.04767e-05
59,56,5.32143,3.43683e-05
60,56,5.37139,2.79566e-05
61,56,5.42074,2.1267e-05
62,56,5.46947,1.43389e-05
63,56,5.51752,7.22716e-06
1,57,2.47515,0.000124346
2,57,2.51411,0.000124253
3,57,2.55367,0.000124173
4,57,2.59382,0.000124105
5,57,2.63456,0.000124048
6,57,2.6759,0.000124
7,57,2.71781,0.000123959
8,57,2.76031,0.000123924
9,57,2.80339,0.000123893
10,57,2.84705,0.000123862
11,57,2.89128,0.00012383
12,57,2.93607,0.000123794
13,57,2.98141,0.000123753
14,57,3.02731,0.000123702
15,57,3.07376,0.000123641
16,57,3.12074,0.000123566
17,57,3.16824,0.000123474
18,57,3.21626,0.000123362
19,57,3.26479,0.000123228
20,57,3.31382,0.000123069
21,57,3.36333,0.000122881
22,57,3.4133,0.000122661
23,57,3.46374,0.000122405
24,57,3.51462,0.000122111
25,57,3.56593,0.000121773
26,57,3.61765,0.000121389
27,57,3.66977,0.000120953
28,57,3.72227,0.000120462
29,57,3.77513,0.00011991
30,57,3.82833,0.000119294
31,57,3.88185,0.000118607
32,57,3.93567,0.000117844
33,57,3.98977,0.000117
34,57,4.04412,0.000116069
35,57,4.09872,0.000115043
36,57,4.15352,0.000113917
37,57,4.2085,0.000112682
38,57,4.26364,0.000111332
39,57,4.31892,0.000109859
40,57,4.3743,0.000108253
41,57,4.42976,0.000106506
42,57,4.48527,0.000104609
43,57,4.5408,0.00010255
44,57,4.59631,0.00010032
45,57,4.65178,9.79064e-05
46,57,4.70718,9.52978e-05
47,57,4.76248,9.24812e-05
48,57,4.81763,8.94431e-05
49,57,4.87261,8.61691e-05
50,57,4.92739,8.26441e-05
51,57,4.98192,7.88525e-05
52,57,5.03618,7.47779e-05
53,57,5.09013,7.04036e-05
54,57,5.14373,6.57128e-05
55,57,5.19695,6.0689e-05
56,57,5.24974,5.53171e-05
57,57,5.30208,4.95845e-05
58,57,5.35392,4.34827e-05
59,57,5.40524,3.70101e-05
60,57,5.45598,3.01758e-05
61,57,5.50611,2.30033e-05
62,57,5.5556,1.55357e-05
63,57,5.6044,7.83872e-06
1,58,2.51413,0.000127919
2,58,2.5537,0.000127833
3,58,2.59389,0.000127764
4,58,2.63467,0.000127711
5,58,2.67605,0.000127673
6,58,2.71804,0.000127647
7,58,2.76061,0.000127632
8,58,2.80378,0.000127625
9,58,2.84754,0.000127623
10,58,2.89189,0.000127625
11,58,2.93681,0.000127626
12,58,2.9823,0.000127626
13,58,3.02837,0.00012762
14,58,3.07499,0.000127607
15,58,3.12216,0.000127584
16,58,3.16988,0.000127547
17,58,3.21814,0.000127495
18,58,3.26691,0.000127423
19,58,3.31621,0.00012733
20,58,3.366,0.000127211
21,58,3.41629,0.000127065
22,58,3.46706,0.000126886
23,58,3.51829,0.000126672
24,58,3.56997,0.000126419
25,58,3.62209,0.000126123
26,58,3.67463,0.00012578
27,58,3.72757,0.000125385
28,58,3.78089,0.000124934
29,58,3.83458,0.000124423
30,58,3.88862,0.000123846
31,58,3.94298,0.000123197
32,58,3.99765,0.000122472
33,58,4.0526,0.000121664
34,58,4.10781,0.000120768
35,58,4.16326,0.000119775
36,58,4.21893,0.00011868
37,58,4.27478,0.000117475
38,58,4.33079,0.000116152
39,58,4.38694,0.000114702
40,58,4.44319,0.000113117
41,58,4.49952,0.000111387
42,58,4.5559,0.000109502
43,58,4.61231,0.000107451
44,58,4.6687,0.000105223
45,58,4.72504,0.000102805
46,58,4.78131,0.000100184
47,58,4.83748,9.73472e-05
48,58,4.8935,9.42785e-05
49,58,4.94935,9.09622e-05
50,58,5.00499,8.73813e-05
51,58,5.06038,8.35176e-05
52,58,5.11549,7.93519e-05
53,58,5.17029,7.48639e-05
54,58,5.22474,7.00323e-05
55,58,5.27879,6.48356e-05
56,58,5.33242,5.9252e-05
57,58,5.38558,5.32614e-05
58,58,5.43824,4.68467e-05
59,58,5.49036,3.99969e-05
60,58,5.5419,3.27119e-05
61,58,5.59282,2.50091e-05
62,58,5.64309,1.69317e-05
63,58,5.69266,8.5571e-06
1,59,2.55372,0.000131501
2,59,2.59392,0.000131422
3,59,2.63474,0.000131366
4,59,2.67616,0.000131332
5,59,2.7182,0.000131316
6,59,2.76084,0.000131317
7,59,2.80409,0.000131331
8,59,2.84794,0.000131356
9,59,2.89239,0.000131388
10,59,2.93743,0.000131425
11,59,2.98306,0.000131464
12,59,3.02927,0.000131502
13,59,3.07606,0.000131536
14,59,3.12341,0.000131564
15,59,3.17133,0.000131583
16,59,3.2198,0.000131589
17,59,3.26882,0.00013158
18,59,3.31836,0.000131553
19,59,3.36843,0.000131504
20,59,3.41901,0.00013143
21,59,3.47009,0.000131329
22,59,3.52166,0.000131196
23,59,3.5737,0.000131028
24,59,3.62619,0.000130821
25,59,3.67913,0.000130571
26,59,3.7325,0.000130273
27,59,3.78627,0.000129924
28,59,3.84043,0.000129519
29,59,3.89497,0.000129053
30,59,3.94986,0.00012852
31,59,4.00507,0.000127915
32,59,4.0606,0.000127233
33,59,4.11642,0.000126467
34,59,4.1725,0.000125611
35,59,4.22883,0.000124658
36,59,4.28537,0.000123601
37,59,4.3421,0.000122432
38,59,4.39899,0.000121143
39,59,4.45602,0.000119724
40,59,4.51316,0.000118168
41,59,4.57038,0.000116463
42,59,4.62765,0.000114599
43,59,4.68494,0.000112565
44,59,4.74222,0.000110349
45,59,4.79945,0.000107938
46,59,4.85661,0.000105317
47,59,4.91366,0.000102471
48,59,4.97057,9.9385e-05
49,59,5.02729,9.60405e-05
50,59,5.08381,9.24187e-05
51,59,5.14007,8.84989e-05
52,59,5.19606,8.4259e-05
53,59,5.25172,7.96748e-05
54,59,5.30702,7.47205e-05
55,59,5.36192,6.93684e-05
56,59,5.41639,6.35895e-05
57,59,5.47039,5.7354e-05
58,59,5.52388,5.0633e-05
59,59,5.57682,4.34016e-05
60,59,5.62917,3.56442e-05
61,59,5.6809,2.73634e-05
62,59,5.73196,1.85943e-05
63,59,5.78231,9.42252e-06
1,60,2.59394,0.000135084
2,60,2.63477,0.000135015
3,60,2.67623,0.000134976
4,60,2.71831,0.000134964
5,60,2.761,0.000134975
6,60,2.80432,0.000135006
7,60,2.84825,0.000135054
8,60,2.89279,0.000135115
9,60,2.93794,0.000135185
10,60,2.98369,0.000135262
11,60,3.03004,0.000135342
12,60,3.07698,0.000135423
13,60,3.1245,0.000135501
14,60,3.1726,0.000135574
15,60,3.22127,0.000135639
16,60,3.27051,0.000135692
17,60,3.32029,0.00013573
18,60,3.37062,0.000135751
19,60,3.42148,0.000135751
20,60,3.47286,0.000135726
21,60,3.52474,0.000135675
22,60,3.57712,0.000135592
23,60,3.62998,0.000135474
24,60,3.6833,0.000135317
25,60,3.73707,0.000135117
26,60,3.79128,0.00013487
27,60,3.8459,0.000134572
28,60,3.90091,0.000134217
29,60,3.95631,0.000133801
30,60,4.01206,0.000133317
31,60,4.06815,0.000132762
32,60,4.12455,0.000132129
33,60,4.18125,0.000131411
34,60,4.23822,0.000130602
35,60,4.29543,0.000129695
36,60,4.35286,0.000128682
37,60,4.41048,0.000127556
38,60,4.46827,0.000126308
39,60,4.5262,0.000124929
40,60,4.58424,0.000123409
41,60,4.64236,0.000121738
42,60,4.70053,0.000119905
43,60,4.75872,0.000117899
44,60,4.8169,0.000115705
45,60,4.87504,0.000113312
46,60,4.9331,0.000110703
47,60,4.99104,0.000107863
48,60,5.04885,0.000104774
49,60,5.10647,0.000101417
50,60,5.16387,9.77717e-05
51,60,5.22102,9.38147e-05
52,60,5.27789,8.95211e-05
53,60,5.33442,8.4863e-05
54,60,5.39059,7.98099e-05
55,60,5.44636,7.43277e-05
56,60,5.50169,6.83791e-05
57,60,5.55654,6.19233e-05
58,60,5.61087,5.49167e-05
59,60,5.66465,4.73151e-05
60,60,5.71782,3.9078e-05
61,60,5.77036,3.01796e-05
62,60,5.82222,2.06283e-05
63,60,5.87337,1.05027e-05
1,61,2.63479,0.000138664
2,61,2.67626,0.000138607
3,61,2.71837,0.000138589
4,61,2.76111,0.000138604
5,61,2.80449,0.000138647
6,61,2.84848,0.000138713
7,61,2.8931,0.000138799
8,61,2.93835,0.0001389
9,61,2.98421,0.000139013
10,61,3.03068,0.000139134
11,61,3.07775,0.00013926
12,61,3.12543,0.000139388
13,61,3.17371,0.000139515
14,61,3.22257,0.000139637
15,61,3.272,0.000139751
16,61,3.32201,0.000139855
17,61,3.37258,0.000139945
18,61,3.4237,0.000140018
19,61,3.47536,0.000140071
20,61,3.52755,0.0001401
21,61,3.58025,0.000140102
22,61,3.63345,0.000140073
23,61,3.68714,0.00014001
24,61,3.74131,0.000139908
25,61,3.79593,0.000139763
26,61,3.85098,0.000139572
27,61,3.90646,0.000139329
28,61,3.96235,0.000139029
29,61,4.01861,0.000138668
30,61,4.07524,0.00013824
31,61,4.13222,0.00013774
32,61,4.18951,0.000137161
33,61,4.2471,0.000136497
34,61,4.30496,0.000135741
35,61,4.36307,0.000134886
36,61,4.42141,0.000133925
37,61,4.47994,0.000132849
38,61,4.53864,0.00013165
39,61,4.59748,0.000130318
40,61,4.65643,0.000128844
41,61,4.71547,0.000127217
42,61,4.77456,0.000125425
43,61,4.83367,0.000123456
44,61,4.89276,0.000121297
45,61,4.95181,0.000118934
46,61,5.01079,0.00011635
47,61,5.06964,0.00011353
48,61,5.12836,0.000110455
49,61,5.18689,0.000107103
50,61,5.24519,0.000103454
51,61,5.30325,9.94817e-05
52,61,5.361,9.51586e-05
53,61,5.41843,9.04537e-05
54,61,5.47549,8.53318e-05
55,61,5.53214,7.97529e-05
56,61,5.58834,7.36713e-05
57,61,5.64405,6.70345e-05
58,61,5.69924,5.97823e-05
59,61,5.75386,5.18462e-05
60,61,5.80787,4.3151e-05
61,61,5.86123,3.36217e-05
62,61,5.91391,2.32049e-05
63,61,5.96586,1.19234e-05
1,62,2.67628,0.000142229
2,62,2.71841,0.00014219
3,62,2.76118,0.000142199
4,62,2.8046,0.000142247
5,62,2.84865,0.000142327
6,62,2.89334,0.000142435
7,62,2.93867,0.000142564
8,62,2.98462,0.000142711
9,62,3.0312,0.000142871
10,62,3.0784,0.000143041
11,62,3.12622,0.000143218
12,62,3.17465,0.000143397
13,62,3.22369,0.000143576
14,62,3.27332,0.000143751
15,62,3.32353,0.00014392
16,62,3.37433,0.000144079
17,62,3.4257,0.000144224
18,62,3.47762,0.000144354
19,62,3.53009,0.000144464
20,62,3.5831,0.000144551
21,62,3.63663,0.000144611
22,62,3.69067,0.000144641
23,62,3.74521,0.000144637
24,62,3.80023,0.000144594
25,62,3.85571,0.00014451
26,62,3.91163,0.000144378
27,62,3.96798,0.000144196
28,62,4.02475,0.000143957
29,62,4.0819,0.000143656
30,62,4.13942,0.000143289
31,62,4.19729,0.000142849
32,62,4.25549,0.00014233
33,62,4.31398,0.000141726
34,62,4.37276,0.00014103
35,62,4.43178,0.000140235
36,62,4.49104,0.000139332
37,62,4.55049,0.000138314
38,62,4.61012,0.000137172
39,62,4.66988,0.000135896
40,62,4.72977,0.000134476
41,62,4.78973,0.000132902
42,62,4.84975,0.000131161
43,62,4.90979,0.000129241
44,62,4.96982,0.000127129
45,62,5.0298,0.000124809
46,62,5.0897,0.000122265
47,62,5.14948,0.000119481
48,62,5.20912,0.000116436
49,62,5.26857,0.00011311
50,62,5.3278,0.000109478
51,62,5.38676,0.000105514
52,62,5.44543,0.000101189
53,62,5.50376,9.64688e-05
54,62,5.56172,9.13142e-05
55,62,5.61926,8.56802e-05
56,62,5.67634,7.9514e-05
57,62,5.73294,7.27522e-05
58,62,5.78899,6.53184e-05
59,62,5.84447,5.71185e-05
60,62,5.89933,4.80354e-05
61,62,5.95354,3.79241e-05
62,62,6.00704,2.66139e-05
63,62,6.05981,1.39488e-05
1,63,2.71843,0.000145767
2,63,2.76122,0.000145755
3,63,2.80467,0.000145799
4,63,2.84876,0.000145889
5,63,2.89351,0.000146014
6,63,2.93891,0.000146169
7,63,2.98494,0.000146348
8,63,3.03162,0.000146546
9,63,3.07894,0.000146759
10,63,3.12688,0.000146983
11,63,3.17546,0.000147214
12,63,3.22465,0.000147449
13,63,3.27445,0.000147685
14,63,3.32486,0.000147918
15,63,3.37587,0.000148145
16,63,3.42747,0.000148363
17,63,3.47964,0.000148569
18,63,3.53239,0.000148759
19,63,3.58569,0.00014893
20,63,3.63953,0.000149079
21,63,3.6939,0.000149202
22,63,3.7488,0.000149296
23,63,3.80419,0.000149355
24,63,3.86007,0.000149377
25,63,3.91643,0.000149357
26,63,3.97323,0.000149291
27,63,4.03047,0.000149174
28,63,4.08813,0.000149
29,63,4.14618,0.000148766
30,63,4.20461,0.000148465
31,63,4.26339,0.000148091
32,63,4.3225,0.000147639
33,63,4.38192,0.000147101
34,63,4.44162,0.000146471
35,63,4.50158,0.000145742
36,63,4.56176,0.000144905
37,63,4.62215,0.000143953
38,63,4.68272,0.000142876
39,63,4.74343,0.000141664
40,63,4.80425,0.000140308
41,63,4.86516,0.000138796
42,63,4.92613,0.000137117
43,63,4.98711,0.000135257
44,63,5.04808,0.000133204
45,63,5.10901,0.000130941
46,63,5.16985,0.000128452
47,63,5.23058,0.00012572
48,63,5.29116,0.000122724
49,63,5.35154,0.000119443
50,63,5.4117,0.000115852
51,63,5.4716,0.000111923
52,63,5.53119,0.000107627
53,63,5.59044,0.000102926
54,63,5.64931,9.77795e-05
55,63,5.70776,9.21394e-05
56,63,5.76574,8.59475e-05
57,63,5.82322,7.91329e-05
58,63,5.88016,7.16071e-05
59,63,5.93651,6.32556e-05
60,63,5.99224,5.3925e-05
61,63,6.0473,4.33978e-05
62,63,6.10165,3.1345e-05
63,63,6.15524,1.72203e-05
